4,5817	-0,5318	11,002
31,377	-5,9904	19,44
17,483	-1,028	11,002
-4,8463	-3,013	10,506
-16,755	-2,0205	2,5642
0,11579	4,4306	11,498
11,529	0,46068	5,5423
15,498	2,4456	6,535
1,1082	2,9419	5,046
-10,305	1,4532	5,046
-8,3198	2,4456	0,0825
-0,87663	-0,035559	2,0679
-5,3425	1,4532	-0,41385
3,0931	3,9343	2,5642
3,0931	3,9343	2,5642
-1,8691	5,4231	4,5496
-4,3501	3,9343	-2,3992
-11,793	6,4155	1,5715
-18,244	4,9268	-1,9029
14,506	8,4005	1,5715
19,468	7,408	-8,3554
12,521	-3,5092	-0,91019
-11,793	-7,9754	-9,3481
-17,748	-10,457	-10,837
-6,8312	-6,9829	-6,37
8,0552	-5,9904	-4,881
12,521	-3,5092	-11,333
0,612	-5,4942	-8,3554
-8,3198	-2,5167	-5,3773
-8,3198	-1,5243	-1,9029
-3,8539	-0,035559	-8,3554
2,5968	-0,035559	7,5277
-4,8463	-3,013	2,5642
0,612	-3,013	5,5423
-0,87663	-2,5167	4,5496
5,5741	-0,5318	0,57885
0,612	-2,5167	-6,8663
-1,8691	-3,5092	-3,3919
-7,8236	-4,0055	-4,881
-2,3653	-4,5017	-7,859
8,0552	4,9268	0,57885
2,5968	-3,5092	-4,3846
-6,3349	-1,028	-10,341
-0,87663	3,9343	3,5569
-0,87663	3,9343	3,5569
-5,3425	3,9343	3,5569
6,5665	6,4155	13,484
7,5589	6,9118	11,995
1,6044	4,9268	1,0752
3,0931	5,9193	2,0679
-4,8463	5,9193	-8,3554
-0,87663	7,9042	-1,4065
5,0779	3,9343	-2,3992
8,0552	4,4306	-0,41385
4,0855	5,4231	-5,3773
6,5665	4,9268	-4,3846
0,11579	7,408	-8,3554
2,5968	4,4306	-6,8663
-3,3577	5,4231	-1,9029
7,5589	4,9268	13,98
2,1006	4,9268	8,5204
4,0855	3,9343	13,484
3,5893	-1,028	16,958
0,612	-6,9829	17,951
-4,3501	-5,9904	17,951
-3,3577	-4,0055	18,447
15,002	-4,5017	34,33
4,0855	-1,5243	21,425
12,025	-4,0055	30,36
-3,8539	-5,9904	8,024
-7,3274	-4,9979	6,535
-5,3425	-4,5017	4,5496
-0,38042	-2,0205	0,57885
7,5589	1,4532	5,5423
4,0855	0,95692	8,5204
-2,3653	2,4456	10,506
-4,3501	-0,035559	5,5423
-0,87663	-4,9979	5,5423
-13,282	-3,5092	-7,3627
3,0931	-3,5092	-1,4065
-0,87663	-1,5243	-11,333
3,0931	-1,028	-8,3554
15,498	-4,0055	9,0167
4,0855	7,9042	-9,3481
-3,3577	5,9193	-16,793
7,0627	3,9343	-10,341
-0,87663	4,4306	-18,779
3,5893	3,9343	-10,341
0,11579	2,9419	-12,823
-0,87663	3,4381	-6,37
-8,816	2,9419	-12,326
-7,3274	4,4306	-8,3554
-4,3501	2,4456	-14,808
3,5893	2,9419	-0,41385
4,0855	4,9268	-2,3992
1,1082	4,4306	-0,41385
4,0855	2,9419	-5,3773
-0,38042	1,9494	-7,3627
1,1082	-0,035559	-4,3846
10,04	0,95692	2,5642
18,972	1,4532	12,491
7,5589	1,4532	5,046
-5,3425	-4,5017	-4,3846
-2,8615	-8,4716	-1,4065
-6,8312	-9,4641	-4,3846
7,0627	-4,5017	11,498
11,032	-3,5092	11,002
1,1082	-4,9979	4,5496
-13,282	-5,4942	0,57885
1,6044	-4,5017	11,498
-8,816	-3,013	0,57885
-9,8084	-3,013	5,5423
-4,3501	-4,0055	-2,3992
-2,3653	-1,028	5,5423
-10,801	-1,028	-0,91019
0,612	2,4456	20,433
-8,816	1,9494	3,5569
-2,3653	1,9494	11,498
2,5968	2,9419	7,5277
3,0931	1,4532	3,0606
3,0931	-0,5318	15,469
2,5968	1,9494	9,5131
-3,3577	-1,028	7,0313
-0,87663	1,9494	8,5204
-1,8691	5,9193	6,0387
10,04	1,9494	9,5131
3,0931	-0,5318	-2,3992
2,5968	1,9494	2,5642
-2,8615	2,4456	-11,333
-1,8691	2,9419	-4,3846
-5,3425	2,9419	-7,3627
1,1082	5,4231	-4,3846
-2,8615	3,9343	-13,319
-0,38042	4,4306	-7,3627
-2,3653	5,4231	-10,341
-0,87663	3,4381	-7,3627
2,1006	0,46068	3,5569
-9,3122	1,4532	-4,881
-0,87663	0,46068	-5,3773
2,5968	1,9494	2,5642
10,04	-0,035559	15,469
-6,3349	0,46068	1,5715
-5,8387	-5,4942	-12,326
-2,3653	-7,9754	8,5204
-9,8084	-9,9603	-0,41385
3,0931	-7,4791	5,046
-1,8691	-6,4866	-0,91019
-1,3728	-7,9754	2,5642
-16,755	-5,9904	0,57885
-7,8236	-4,5017	1,5715
-5,3425	-2,0205	0,57885
3,5893	-4,9979	3,5569
0,612	-2,5167	12,491
2,1006	-4,0055	5,5423
-6,3349	-4,0055	-0,41385
-1,3728	-3,5092	2,5642
-7,8236	-4,5017	3,5569
-5,8387	-5,4942	2,5642
4,0855	-1,5243	6,535
7,0627	2,4456	1,5715
0,612	2,4456	0,0825
2,1006	2,9419	-0,41385
-15,763	-3,013	-22,749
0,11579	0,95692	0,0825
-5,8387	4,9268	-10,341
2,1006	0,95692	-5,3773
3,5893	-1,5243	-10,341
4,5817	1,4532	1,5715
-1,8691	4,9268	-6,37
2,1006	3,4381	-1,4065
4,0855	4,4306	-5,3773
3,0931	2,4456	-4,3846
1,6044	1,9494	-5,8737
3,5893	2,9419	-0,41385
6,5665	1,4532	2,5642
-1,8691	1,9494	-5,3773
3,0931	12,867	-1,9029
-4,8463	3,4381	-6,37
-1,8691	2,9419	-16,793
6,0703	3,4381	-5,8737
3,0931	3,4381	-2,3992
2,5968	4,9268	-3,3919
-1,8691	3,4381	-2,3992
2,1006	-3,013	7,5277
21,453	-8,9678	25,396
15,002	-3,5092	13,484
23,438	-3,5092	31,849
2,5968	-0,5318	13,98
-0,87663	-2,0205	3,5569
1,6044	-2,0205	15,469
-5,3425	-3,013	6,0387
1,1082	-2,5167	1,0752
1,6044	-2,0205	6,0387
3,0931	-4,0055	8,5204
1,1082	-1,5243	22,418
-2,3653	-0,035559	2,5642
-3,8539	0,46068	6,535
-0,87663	1,4532	1,5715
-1,3728	-0,5318	1,5715
3,5893	-0,035559	7,5277
-3,8539	-2,0205	-2,3992
-0,87663	-3,5092	5,5423
-8,816	-2,5167	3,5569
-3,3577	-1,5243	6,535
0,612	-0,035559	2,5642
5,0779	4,9268	10,506
-18,244	2,4456	-22,749
0,11579	0,46068	1,5715
-8,816	1,9494	-9,8444
-0,38042	2,9419	-2,8956
-3,3577	-1,5243	-6,37
10,536	0,95692	-4,881
15,498	6,4155	-11,333
6,0703	3,4381	-4,3846
2,5968	4,4306	-1,4065
4,0855	3,4381	9,5131
-2,8615	3,4381	1,0752
8,0552	2,9419	7,5277
2,5968	4,9268	-2,3992
6,5665	5,9193	7,5277
-3,3577	1,9494	-6,37
4,5817	7,9042	5,046
-6,3349	6,4155	-4,881
-3,3577	0,46068	9,0167
3,5893	-4,5017	3,5569
4,5817	-8,9678	3,0606
3,5893	-7,4791	1,5715
2,5968	-5,4942	3,5569
-0,87663	-4,9979	-3,8883
-21,717	-3,013	-11,333
1,6044	-2,5167	3,5569
2,5968	-6,4866	2,5642
-8,3198	-5,9904	-11,83
4,0855	-4,0055	1,0752
-8,3198	-2,0205	-6,8663
-8,816	-2,0205	-5,3773
-15,763	-1,028	-4,3846
-0,87663	-1,5243	-4,881
6,5665	-2,0205	7,5277
-0,87663	-0,5318	-6,37
-6,3349	-1,028	-10,341
-0,38042	-2,5167	-4,3846
3,5893	-3,013	4,0533
-5,8387	-3,013	-10,341
-4,3501	-4,0055	-17,786
0,612	-1,028	-0,41385
-3,8539	0,46068	-6,37
0,612	6,4155	9,0167
-8,3198	0,46068	-6,8663
-1,8691	-1,5243	4,5496
1,6044	1,9494	5,046
4,0855	1,4532	8,5204
1,6044	0,95692	7,0313
-8,816	2,9419	6,535
-7,3274	0,46068	-0,91019
1,1082	0,95692	4,5496
-17,748	4,4306	-14,808
10,536	2,9419	4,5496
1,6044	1,9494	-7,859
5,5741	2,9419	1,5715
-7,3274	3,4381	-12,326
-2,3653	3,9343	-0,41385
-11,297	5,4231	-10,341
-5,3425	6,4155	-9,8444
-5,8387	-2,0205	-10,341
2,1006	-4,5017	-4,3846
2,5968	-5,9904	-2,3992
-4,8463	-4,9979	-10,341
-9,3122	-3,013	-16,297
-2,3653	-3,5092	1,0752
-3,3577	1,4532	-5,3773
5,0779	-1,028	-0,41385
5,0779	-2,0205	2,0679
5,5741	0,46068	4,5496
-4,8463	-3,5092	-12,326
-2,8615	-2,0205	-4,3846
-4,8463	-1,5243	0,57885
3,0931	-1,028	9,0167
-5,8387	2,4456	1,5715
-0,87663	-0,035559	9,0167
3,0931	-0,035559	17,455
10,536	1,9494	21,922
3,0931	3,4381	12,987
11,529	1,9494	15,469
7,0627	1,4532	6,535
6,0703	1,4532	7,5277
-2,8615	2,9419	3,5569
4,5817	1,9494	8,5204
0,612	-0,5318	2,5642
-2,8615	2,9419	3,5569
7,0627	8,8967	7,5277
5,5741	1,9494	4,5496
-1,3728	4,4306	6,535
3,5893	2,4456	13,484
-9,3122	1,9494	0,0825
-9,3122	1,4532	0,57885
-9,8084	0,46068	-5,8737
-2,3653	-0,035559	7,5277
2,5968	-1,5243	6,535
2,1006	0,95692	5,5423
-3,8539	1,4532	-0,41385
0,11579	0,46068	1,5715
-6,8312	2,9419	1,5715
0,612	4,4306	-0,91019
-3,3577	0,46068	-6,8663
-0,87663	-5,9904	-2,3992
-25,191	-9,4641	-20,764
-1,3728	-9,4641	3,5569
-3,8539	-2,0205	7,0313
-2,8615	-3,013	7,5277
-5,8387	-5,4942	-3,8883
-1,3728	-2,0205	5,046
-6,3349	-2,5167	-3,3919
2,5968	-4,0055	5,5423
-1,3728	-1,5243	1,5715
-0,38042	-1,5243	-2,8956
14,01	6,9118	12,491
8,0552	0,46068	-0,41385
-2,8615	-2,0205	-10,341
0,612	-0,035559	-0,41385
-1,3728	-2,0205	-11,83
4,5817	-4,0055	-3,3919
-6,3349	-4,0055	-15,304
0,612	-5,9904	-2,3992
1,1082	-7,9754	1,5715
6,5665	-2,5167	8,5204
-5,8387	1,9494	-0,91019
-1,3728	1,4532	2,5642
-41,07	1,4532	-43,596
1,1082	-1,5243	-2,3992
-16,755	1,9494	-23,246
-2,3653	-0,035559	-1,9029
-9,3122	-2,0205	-8,3554
-2,8615	10,385	6,0387
-7,8236	5,9193	-3,3919
-9,3122	7,408	-7,859
-10,305	7,408	-17,786
-1,3728	4,4306	-16,297
-5,3425	4,4306	-12,326
-6,3349	4,4306	-3,8883
-5,8387	2,9419	-6,8663
-3,3577	3,9343	-4,3846
-1,3728	6,4155	-2,3992
11,032	4,4306	5,5423
2,1006	3,9343	-4,881
9,5438	-3,5092	3,5569
-8,3198	-6,4866	-16,297
7,0627	-6,9829	6,0387
-11,793	-4,0055	-0,91019
10,536	-3,5092	5,5423
5,0779	-3,013	0,0825
10,04	-0,5318	5,5423
-1,3728	0,46068	-1,4065
5,0779	-1,028	-0,91019
-8,3198	2,4456	-1,4065
2,5968	-0,5318	8,5204
-2,8615	-3,013	-10,837
7,5589	-1,5243	5,5423
-0,38042	-3,013	0,57885
8,5514	3,4381	12,987
-3,8539	-0,035559	-17,29
5,0779	-4,0055	10,009
-0,87663	-0,5318	-10,341
-0,87663	-2,0205	-6,37
6,5665	-0,035559	5,5423
-0,87663	-4,0055	-2,3992
-11,793	0,95692	-26,224
-5,3425	5,9193	-6,37
-9,8084	3,9343	-7,859
-3,3577	2,4456	-4,881
3,0931	1,9494	3,5569
-2,3653	1,4532	1,0752
-8,3198	0,95692	-4,3846
-1,8691	-0,035559	3,5569
-12,786	-0,035559	-6,8663
-8,3198	0,46068	-1,4065
-4,3501	0,46068	-0,41385
3,5893	1,4532	-1,4065
0,11579	2,4456	-0,41385
-5,3425	2,9419	2,0679
-9,3122	2,4456	-0,41385
-4,8463	2,9419	6,535
2,1006	0,46068	4,0533
2,1006	-2,0205	10,506
-2,3653	-0,5318	10,506
3,5893	-4,0055	32,345
-4,3501	-4,5017	31,352
-0,38042	-4,9979	39,294
-5,8387	-4,5017	34,827
3,0931	-4,0055	34,33
6,0703	-5,9904	36,812
3,5893	-5,9904	35,323
-2,3653	-4,0055	24,403
-1,8691	-3,013	24,9
-1,8691	1,9494	22,418
12,025	0,95692	29,367
3,0931	-1,028	17,455
5,5741	-3,013	17,455
-3,3577	-0,035559	12,491
-4,3501	-1,5243	0,57885
-5,3425	1,4532	-2,3992
-6,8312	1,9494	-1,4065
25,919	8,4005	20,433
7,5589	0,95692	2,5642
-0,87663	-0,035559	-6,8663
-2,3653	-3,5092	-10,837
-0,87663	-0,5318	-10,837
2,1006	-0,035559	-8,3554
4,0855	-0,5318	-20,268
7,0627	-1,5243	-18,282
3,5893	1,9494	-18,779
8,5514	3,4381	-16,297
-9,3122	3,4381	-49,056
4,5817	-1,5243	-26,224
-14,274	-2,5167	-44,589
0,612	-4,0055	-38,136
-4,3501	-2,0205	-28,209
-2,3653	-2,0205	-21,26
-7,3274	-3,5092	-26,224
0,612	-2,0205	-16,793
0,612	-0,035559	-9,8444
2,1006	-1,028	-7,3627
4,0855	-2,0205	-11,333
10,04	-2,5167	-1,4065
5,5741	-1,5243	-8,3554
11,529	-5,4942	7,5277
-7,8236	-9,4641	-13,319
-0,87663	-13,434	-0,91019
-12,786	-7,4791	-25,231
7,5589	-7,9754	8,024
6,0703	-5,4942	6,535
5,5741	-6,4866	8,5204
-3,3577	-5,4942	3,5569
2,5968	-3,013	16,462
-8,816	-4,5017	6,535
12,521	-3,013	17,455
-8,816	-3,013	0,0825
-2,3653	-0,035559	12,491
-9,8084	-1,028	5,5423
4,0855	-0,035559	14,973
-0,87663	-2,5167	11,002
4,5817	-2,5167	12,987
-3,3577	-2,0205	-0,91019
3,5893	-2,5167	10,506
-3,3577	-2,0205	2,5642
0,11579	-0,035559	12,491
-19,236	3,9343	-12,326
-10,801	3,9343	11,498
-6,3349	3,9343	6,0387
-5,8387	2,9419	9,0167
1,6044	2,9419	15,469
2,1006	2,9419	16,958
-4,3501	4,9268	11,995
-2,3653	2,4456	12,491
-11,297	3,9343	15,469
8,0552	1,9494	13,484
-0,87663	2,9419	-1,4065
3,0931	2,4456	11,498
-5,8387	4,4306	1,5715
-0,87663	4,4306	10,009
-11,297	2,4456	-0,41385
-11,297	4,4306	-4,3846
-0,38042	11,874	8,5204
-8,3198	6,4155	6,535
-14,274	5,4231	-6,8663
-6,8312	2,4456	1,0752
-5,8387	-5,4942	-0,41385
-3,8539	-7,9754	7,5277
3,0931	-7,4791	2,0679
10,536	-4,9979	6,535
-7,3274	-3,5092	-27,217
9,5438	-3,013	2,0679
4,0855	-3,5092	-10,341
8,5514	-3,5092	1,5715
-4,8463	-2,0205	-18,282
1,6044	-3,5092	-14,808
-3,3577	-1,028	-17,29
8,5514	-1,5243	-11,333
-3,3577	-3,013	-17,786
4,5817	-3,5092	-12,326
1,1082	-1,5243	-9,8444
15,002	-3,013	6,535
2,1006	-2,0205	-9,3481
5,0779	-3,013	-2,3992
0,11579	-2,0205	-5,8737
-0,38042	-3,013	-2,8956
0,11579	-1,028	-7,859
-4,3501	0,95692	-0,91019
7,5589	6,9118	2,5642
2,5968	3,4381	-0,41385
2,5968	3,4381	0,57885
13,017	4,9268	13,484
-0,87663	4,4306	1,0752
-4,3501	6,9118	-2,3992
-5,3425	4,9268	0,0825
6,5665	0,95692	11,002
2,5968	0,95692	3,5569
5,5741	4,4306	14,477
-11,297	5,9193	-2,3992
-4,8463	2,4456	9,0167
-11,297	2,9419	-0,41385
-0,87663	1,4532	-0,41385
-1,8691	3,4381	-0,41385
-5,3425	1,9494	1,5715
-4,8463	1,9494	5,5423
-3,3577	-1,028	8,024
-10,801	-5,9904	1,0752
-5,3425	-12,441	0,57885
3,0931	-9,9603	6,535
5,0779	-9,4641	18,447
-12,289	-7,4791	8,5204
-14,274	-7,9754	7,5277
-14,274	-5,4942	11,002
-13,778	-6,4866	13,98
0,11579	2,4456	15,469
3,5893	-1,028	23,411
-0,87663	-2,0205	22,418
-4,3501	-1,5243	18,944
-7,3274	2,4456	19,44
-3,3577	2,4456	20,929
-7,3274	2,9419	13,484
-0,38042	1,9494	6,535
3,0931	-1,028	11,498
2,1006	1,9494	5,5423
-3,8539	1,9494	1,0752
-7,8236	2,4456	5,5423
-13,778	-1,5243	-2,8956
1,6044	1,9494	-0,91019
2,1006	2,4456	-3,3919
4,0855	1,4532	-0,91019
-1,8691	-0,035559	-7,3627
-3,3577	-1,028	-17,29
-4,3501	5,9193	-20,268
-5,3425	3,9343	-24,238
3,0931	2,4456	-26,72
4,5817	3,9343	-27,713
-22,71	1,9494	-60,472
-7,3274	0,95692	-30,691
-9,3122	-0,035559	-29,698
-1,8691	-1,028	-20,764
1,1082	0,46068	-15,304
18,476	3,9343	14,973
5,5741	3,4381	3,0606
12,521	2,9419	20,433
-11,297	4,4306	1,0752
0,612	2,4456	22,418
-8,3198	-4,5017	3,0606
8,0552	-6,9829	18,944
-1,3728	-5,9904	-2,3992
4,5817	-3,5092	13,484
-10,305	-0,035559	0,57885
4,0855	-0,035559	13,98
-11,793	0,46068	0,57885
-17,252	-1,5243	-3,3919
-9,3122	0,46068	-2,3992
-12,786	-1,5243	-14,312
0,612	-4,0055	11,498
11,529	-2,0205	20,433
-2,8615	-1,5243	11,498
-15,763	2,4456	4,5496
-4,8463	2,4456	10,506
-9,8084	0,46068	2,0679
-2,3653	-1,028	14,973
-7,3274	-3,013	11,995
2,1006	-3,5092	14,973
-4,3501	-1,5243	3,5569
-11,297	-6,4866	-0,41385
-4,8463	-0,035559	-2,3992
2,5968	3,9343	3,5569
16,987	0,46068	20,433
-0,87663	2,4456	-2,3992
11,529	2,4456	11,498
-10,801	3,4381	-0,41385
20,957	2,9419	24,9
4,5817	1,4532	9,5131
0,11579	0,95692	1,5715
-16,259	2,4456	-10,341
-8,816	6,9118	3,0606
-21,221	9,8892	-2,3992
5,0779	4,9268	23,411
2,1006	4,9268	8,024
-6,3349	7,408	-1,4065
-0,38042	4,9268	2,5642
16,491	2,4456	30,36
-7,8236	6,4155	-5,3773
13,017	3,9343	25,892
-0,38042	1,4532	0,0825
-6,3349	-0,035559	-8,3554
-4,3501	-6,9829	-5,3773
7,5589	-5,9904	25,396
-6,8312	-4,0055	-4,3846
7,0627	-4,5017	1,5715
-1,3728	-3,5092	-1,4065
17,979	-7,4791	8,5204
-3,8539	-3,5092	-5,3773
19,468	0,95692	11,498
-1,3728	-1,028	-0,91019
12,025	-2,5167	13,98
-9,8084	0,46068	-7,3627
-31,145	-1,028	-26,224
-3,8539	-2,0205	-2,3992
-13,778	-0,5318	-17,29
0,11579	-3,013	1,5715
23,438	-2,0205	39,294
-1,8691	-0,035559	5,046
-11,793	-2,5167	-12,326
-0,87663	-1,5243	6,535
-0,87663	0,95692	-5,3773
1,1082	1,9494	6,535
-5,3425	0,46068	-5,8737
-5,3425	-1,028	-1,4065
-16,259	0,95692	-23,742
-12,289	2,9419	-0,41385
15,002	3,9343	30,36
3,0931	3,9343	10,506
6,0703	5,9193	9,0167
1,6044	2,4456	4,5496
2,1006	4,9268	11,995
-10,305	3,4381	-4,881
-1,8691	3,4381	20,433
-5,8387	2,9419	-2,8956
-7,8236	1,9494	-4,3846
-8,3198	6,4155	-2,8956
-1,8691	5,4231	2,0679
-3,3577	3,4381	4,5496
-1,3728	3,9343	7,0313
3,5893	-2,0205	-1,9029
7,5589	-5,9904	1,5715
-2,8615	-5,9904	-16,297
-9,3122	-4,5017	-24,238
-0,38042	-5,4942	-9,8444
-6,8312	-0,5318	-12,326
-11,793	-4,0055	-13,815
15,498	-3,5092	12,491
0,612	-1,5243	-1,4065
7,0627	-1,028	8,024
0,612	-0,035559	4,5496
5,5741	0,46068	5,5423
-8,3198	-1,5243	-5,3773
7,5589	-1,028	1,5715
4,5817	2,9419	-3,3919
9,0476	0,46068	8,5204
-15,763	0,95692	-16,793
-4,3501	0,95692	-0,41385
-22,214	1,4532	-12,823
-11,793	0,46068	-12,326
-3,3577	0,46068	-12,823
5,5741	3,4381	-2,3992
-0,38042	5,9193	-0,41385
5,5741	2,4456	2,0679
-5,3425	3,9343	-7,3627
0,11579	4,9268	3,5569
-1,8691	4,9268	1,5715
0,11579	6,4155	-1,4065
-7,3274	4,4306	-9,8444
18,972	1,9494	20,929
-6,8312	3,4381	-7,3627
5,0779	4,4306	4,5496
2,1006	1,4532	3,5569
8,5514	2,9419	4,5496
2,5968	3,9343	-0,41385
5,5741	3,9343	3,5569
-1,3728	2,4456	3,0606
-5,3425	1,9494	-4,3846
-7,8236	0,95692	-8,3554
-5,8387	0,46068	5,5423
5,0779	0,95692	7,0313
8,5514	-7,9754	10,506
7,0627	-8,4716	10,506
8,0552	-6,9829	12,491
8,0552	-5,9904	10,506
8,0552	-6,4866	19,44
2,1006	-4,9979	6,0387
7,5589	-4,9979	15,966
4,5817	-4,5017	13,484
7,0627	-2,0205	18,944
1,6044	-3,5092	13,484
2,5968	-2,5167	16,462
-15,763	-1,028	-1,4065
3,0931	0,46068	7,5277
-4,3501	0,46068	0,0825
-4,3501	-2,0205	8,5204
-13,282	-0,5318	-0,41385
-3,8539	-2,0205	8,5204
-4,8463	-1,5243	7,5277
4,5817	-3,013	10,506
4,0855	-0,035559	3,5569
5,0779	3,4381	3,5569
3,5893	1,9494	2,0679
-1,8691	-1,028	-4,881
4,0855	-2,0205	13,484
-8,816	-0,035559	-9,3481
-7,8236	1,4532	-12,823
-0,87663	3,9343	-4,3846
0,612	2,4456	-12,326
-4,8463	-2,0205	-9,8444
-3,3577	0,46068	1,5715
-0,87663	-0,035559	8,5204
-5,8387	-1,5243	0,57885
5,0779	-4,5017	3,0606
-18,244	-0,5318	-25,231
3,5893	-1,028	-0,41385
-19,236	3,9343	-25,231
-11,793	3,4381	-0,41385
-23,206	3,9343	-18,282
1,6044	-3,5092	-6,37
21,949	-8,9678	15,966
9,0476	-8,4716	6,0387
-0,38042	-8,9678	6,535
6,5665	-3,5092	15,469
7,0627	-4,9979	25,396
-0,87663	0,95692	16,462
-6,3349	1,4532	6,535
3,0931	0,46068	18,447
-2,3653	-0,035559	11,498
-4,8463	-0,5318	9,5131
-5,3425	-1,028	7,5277
3,0931	-1,028	17,455
-0,87663	-1,028	4,5496
11,032	0,46068	7,5277
-5,8387	3,9343	-9,3481
7,5589	3,4381	6,535
-6,3349	2,9419	-9,8444
-3,3577	1,9494	-12,326
-16,755	0,46068	-26,224
3,5893	-7,4791	-8,8517
-1,3728	-1,028	-15,801
10,04	-0,035559	5,5423
-6,3349	-0,035559	-7,3627
2,5968	1,4532	2,5642
-7,3274	-0,035559	-11,333
-0,38042	-0,035559	2,5642
-4,3501	2,4456	-12,326
-3,3577	0,95692	-5,8737
-18,74	0,46068	-19,275
-7,3274	1,9494	-5,8737
-9,3122	1,4532	-7,859
-24,199	-0,035559	-30,195
-3,8539	5,4231	-5,8737
8,0552	5,9193	5,5423
6,5665	3,4381	-0,91019
4,5817	3,9343	3,5569
-1,8691	4,4306	-1,4065
4,5817	4,4306	17,455
-5,8387	4,4306	12,491
-3,3577	0,46068	8,5204
-6,3349	-2,0205	2,5642
1,1082	-2,0205	13,484
-4,3501	-1,5243	9,5131
3,5893	-1,028	22,418
3,5893	-0,5318	11,498
14,506	-3,5092	18,447
5,0779	-1,5243	2,5642
12,521	-1,5243	13,484
-4,8463	-1,028	-6,37
-0,38042	-2,5167	1,0752
-6,3349	-1,028	-4,881
-5,3425	-1,5243	-10,341
15,002	-2,5167	11,498
8,5514	-0,5318	9,0167
-0,38042	-1,028	-0,91019
0,612	-2,5167	2,5642
1,6044	-2,5167	10,506
-0,38042	-3,5092	10,009
-14,274	-3,5092	-3,3919
5,0779	-2,5167	12,987
-2,3653	0,95692	3,5569
3,5893	3,9343	11,995
4,5817	1,9494	19,44
5,0779	1,9494	12,987
6,0703	2,4456	17,951
8,5514	0,46068	5,5423
2,5968	0,95692	-3,3919
9,0476	-0,035559	6,0387
-0,87663	0,95692	4,5496
5,5741	0,95692	11,498
-4,3501	2,9419	5,046
-5,3425	1,9494	9,0167
-10,801	4,4306	-4,3846
-5,3425	2,9419	1,0752
-12,289	2,9419	-8,3554
-2,3653	1,9494	-5,8737
1,6044	0,46068	-2,3992
0,612	2,4456	7,5277
0,11579	4,4306	-2,3992
8,5514	7,9042	7,0313
-7,3274	-0,035559	-18,779
1,1082	-5,4942	2,5642
-5,3425	-4,5017	-13,319
-0,87663	-2,0205	1,0752
-5,8387	-3,013	-0,91019
-0,38042	-4,5017	-2,3992
-8,3198	-0,5318	-9,8444
-9,8084	-1,5243	-9,8444
-12,786	-2,5167	-10,341
2,5968	-1,5243	6,0387
-0,87663	-2,5167	6,535
5,5741	0,95692	9,0167
14,01	-1,5243	13,484
8,5514	-2,5167	11,002
10,04	-3,013	10,506
3,5893	-3,5092	12,491
-9,8084	-1,5243	-1,4065
-5,3425	-1,5243	3,5569
-5,3425	-2,5167	-6,37
1,1082	-1,5243	13,484
17,483	-4,5017	32,841
7,5589	0,95692	22,418
7,0627	4,4306	15,966
8,5514	0,95692	19,44
-3,3577	1,9494	7,0313
12,025	2,4456	15,469
11,529	2,9419	25,396
6,5665	2,4456	9,0167
4,5817	1,9494	18,447
-1,8691	2,4456	2,5642
-2,8615	1,9494	9,5131
2,5968	0,46068	0,57885
-5,3425	-0,035559	-9,3481
-1,3728	2,4456	-10,341
-6,3349	4,9268	-8,3554
3,5893	5,9193	8,024
-2,8615	4,4306	4,0533
-3,8539	2,9419	12,491
-16,755	3,9343	-13,319
4,5817	0,95692	7,5277
-26,183	-5,4942	-25,231
-0,38042	-9,9603	5,5423
-11,297	-9,4641	-10,837
4,0855	-8,9678	14,973
-11,793	-5,4942	-10,341
1,6044	-4,0055	-0,41385
1,6044	-4,9979	0,57885
4,5817	-5,4942	8,024
-9,3122	-8,4716	-10,837
-6,3349	-5,9904	1,5715
-10,305	-6,9829	2,5642
4,5817	-7,4791	18,447
-18,74	-6,9829	-6,37
-6,8312	-5,4942	9,5131
-13,282	-4,0055	4,5496
-7,8236	-4,0055	15,469
-6,8312	-2,0205	14,477
-8,3198	-5,4942	15,469
-7,3274	-7,4791	5,046
-7,3274	-6,4866	7,5277
-14,274	-7,4791	4,5496
-9,3122	-4,5017	11,498
-31,642	-2,0205	-11,333
-26,183	-4,9979	-2,3992
-18,74	-4,0055	-4,3846
-17,748	-5,9904	1,5715
-17,748	-3,013	7,5277
-20,725	-2,0205	7,5277
-22,71	0,46068	3,5569
-23,702	-2,0205	5,046
-34,619	-2,0205	-2,3992
-19,733	-4,0055	7,0313
-37,596	-3,013	-13,319
-36,108	-3,5092	-11,333
-35,611	-4,0055	-12,326
-32,634	-4,0055	-7,859
-35,611	-3,013	-7,3627
-28,168	-4,9979	2,0679
-32,138	-3,013	-4,881
-27,672	1,4532	1,5715
-39,085	-5,9904	-12,823
-31,642	-10,457	13,484
-37,596	-9,9603	6,535
-39,085	-5,9904	5,5423
-38,092	-3,5092	-4,881
-28,664	-7,4791	13,484
-38,092	-9,4641	-0,41385
-36,108	-6,9829	7,5277
-45,536	-5,9904	-8,3554
-43,551	-7,4791	-10,837
-39,085	2,4456	-8,8517
-33,13	-3,5092	-2,3992
-34,619	-2,5167	-4,3846
-30,153	-3,013	3,0606
-35,611	-5,4942	-4,3846
-28,664	-3,5092	3,0606
-37,1	-4,0055	-8,8517
-18,244	-4,0055	11,498
-26,183	-4,9979	1,5715
-28,664	-5,9904	-0,91019
-37,1	-5,4942	-16,297
-29,657	0,95692	-7,3627
-18,74	4,9268	9,5131
-18,244	4,4306	7,5277
-13,778	2,4456	-3,3919
-11,793	2,4456	0,57885
-15,763	2,9419	-5,3773
-11,793	4,4306	-4,881
-12,289	2,4456	-11,333
-6,8312	4,4306	-5,3773
-6,3349	7,9042	-10,837
2,5968	8,4005	-0,41385
-2,8615	13,363	-4,3846
8,0552	9,8892	5,5423
1,6044	8,4005	1,5715
7,5589	3,4381	7,5277
-0,87663	3,9343	-1,9029
10,536	3,9343	3,0606
8,0552	5,4231	-4,3846
11,032	5,9193	0,57885
4,5817	-3,5092	-9,8444
14,01	-5,9904	8,5204
-4,8463	-9,9603	-13,815
11,032	-3,5092	1,5715
1,1082	-2,0205	-31,684
15,002	-4,0055	-8,3554
16,491	-4,0055	-8,3554
21,453	-2,0205	-0,91019
16,491	-0,5318	7,0313
20,957	-1,028	13,484
29,888	1,9494	11,498
38,324	0,46068	20,929
24,43	3,9343	6,0387
32,866	3,9343	22,914
25,919	4,4306	10,009
38,324	5,9193	25,892
26,911	4,9268	7,5277
44,279	5,9193	16,462
31,377	6,9118	5,046
50,233	2,9419	14,477
43,286	-0,5318	5,5423
43,782	4,4306	10,506
32,866	6,4155	0,0825
41,797	3,4381	6,0387
31,377	2,9419	0,0825
37,828	8,4005	11,498
30,881	7,408	5,5423
20,957	6,9118	3,5569
11,529	6,4155	-5,3773
5,0779	6,4155	-11,333
17,979	6,9118	-12,823
25,423	4,4306	-12,326
19,468	0,46068	-10,341
15,995	-0,5318	-6,37
13,513	0,46068	-13,319
14,01	-0,035559	-11,83
9,0476	2,9419	-17,29
23,438	1,4532	-10,341
17,979	1,9494	-17,29
8,0552	-0,035559	-12,326
19,468	-5,9904	14,477
10,04	-5,4942	-3,8883
6,5665	-10,457	-4,881
16,987	-7,4791	-1,4065
15,002	-7,4791	-3,3919
18,476	-5,9904	3,0606
8,0552	-5,4942	0,0825
12,521	-4,9979	7,5277
3,5893	-3,5092	1,0752
3,5893	-4,5017	7,0313
27,904	-6,4866	24,403
12,521	-3,5092	10,009
-2,3653	-2,5167	-5,3773
2,5968	-1,028	-0,41385
-8,816	-2,0205	-7,859
-0,87663	-3,013	10,009
4,0855	-2,5167	12,491
9,0476	-1,5243	19,44
6,0703	-0,035559	19,44
15,002	-0,035559	26,885
-0,87663	-4,5017	12,987
4,0855	2,4456	20,929
-1,3728	3,9343	11,498
8,0552	2,9419	13,98
-4,3501	3,4381	4,0533
6,5665	1,4532	16,958
0,612	0,95692	9,0167
1,1082	1,9494	9,5131
3,0931	5,4231	9,5131
5,0779	4,9268	7,5277
8,5514	4,9268	7,0313
11,032	3,9343	11,002
0,612	4,4306	2,0679
10,04	1,4532	16,462
-2,3653	3,4381	4,0533
1,1082	3,4381	7,0313
3,5893	3,9343	-1,4065
4,5817	1,9494	-2,8956
-13,282	2,9419	-38,136
0,11579	8,4005	-12,823
-4,8463	2,4456	-20,764
6,0703	-0,5318	-7,3627
-1,8691	-5,4942	-12,326
7,5589	-4,9979	-10,341
3,0931	-5,4942	-12,326
6,0703	-4,9979	-10,837
-1,3728	-3,5092	-8,3554
4,5817	-4,9979	1,0752
-3,3577	-4,0055	-1,9029
11,529	-4,0055	7,5277
3,0931	-2,5167	-4,3846
2,1006	-1,028	-0,91019
-1,8691	-3,013	-10,341
-1,8691	-4,0055	-3,3919
-19,236	-4,5017	-26,224
4,5817	-4,9979	11,002
4,5817	-0,5318	3,5569
8,0552	-1,028	10,506
-0,87663	-1,028	1,0752
8,5514	-2,0205	12,491
-2,8615	-4,5017	-2,3992
3,0931	1,9494	6,535
-10,305	3,9343	1,5715
-2,8615	5,4231	4,5496
2,1006	4,9268	11,002
5,0779	2,4456	14,973
-1,8691	3,9343	10,009
1,1082	2,9419	12,987
-6,3349	4,9268	7,5277
6,5665	4,4306	7,5277
-4,8463	2,9419	-5,3773
1,1082	2,9419	-0,41385
-8,816	6,9118	-3,8883
0,11579	4,4306	5,046
1,6044	6,4155	9,5131
-1,3728	1,9494	5,5423
4,0855	2,4456	-1,4065
10,04	0,46068	13,484
0,11579	0,46068	1,5715
7,5589	1,9494	13,484
-2,8615	-0,5318	5,046
-4,3501	-7,4791	1,0752
-2,8615	-10,953	-2,8956
5,5741	-7,4791	3,5569
3,0931	-6,4866	5,046
7,0627	-6,9829	6,535
3,0931	-5,9904	2,5642
7,5589	-5,9904	7,0313
-1,8691	-6,4866	-1,4065
5,5741	-2,0205	2,5642
0,612	-3,5092	-2,3992
8,0552	-3,5092	9,5131
-3,8539	-4,5017	-2,3992
-3,8539	-4,0055	4,5496
-9,8084	-3,5092	-1,4065
-9,3122	-4,5017	-4,3846
-6,3349	-3,5092	-6,37
7,5589	-5,4942	13,98
5,0779	-3,013	10,506
5,0779	-3,013	10,506
0,612	-5,9904	5,5423
5,0779	-1,5243	10,506
0,11579	1,4532	-0,41385
5,0779	0,95692	7,5277
5,5741	4,9268	8,024
-7,3274	2,9419	0,57885
-9,3122	5,4231	-4,881
-6,3349	6,4155	-2,3992
-13,778	4,4306	-2,3992
5,5741	4,4306	9,5131
19,964	3,4381	30,856
3,5893	0,46068	6,535
-0,38042	2,4456	-2,8956
-0,87663	0,95692	-0,41385
4,0855	-0,035559	15,469
5,0779	4,4306	5,5423
-0,87663	3,9343	-1,9029
6,0703	3,9343	-3,3919
-3,8539	1,9494	1,0752
-8,816	1,4532	0,57885
-9,8084	2,4456	-0,91019
-4,3501	-3,5092	1,5715
2,5968	-6,4866	-2,3992
5,0779	-8,4716	1,0752
0,11579	-5,9904	3,5569
2,5968	-5,4942	11,498
-4,3501	-3,5092	5,046
1,6044	-5,4942	14,477
-10,801	-3,013	-1,9029
0,612	-2,5167	2,0679
-4,8463	-0,035559	-5,3773
3,5893	-0,035559	9,5131
-0,87663	-0,5318	5,046
7,5589	-0,035559	13,98
0,11579	-1,5243	5,5423
8,0552	-2,0205	11,002
5,0779	2,9419	5,5423
7,0627	-0,035559	10,009
-10,801	-3,5092	-4,3846
0,612	-2,0205	14,973
-11,297	-4,0055	8,024
-12,786	-4,9979	11,498
-5,3425	0,95692	5,5423
5,0779	-0,035559	19,44
3,5893	2,4456	16,958
4,5817	-0,035559	17,455
-2,3653	0,46068	11,002
6,0703	6,9118	14,477
2,5968	2,4456	1,0752
10,04	3,9343	10,506
-4,8463	2,9419	-20,268
-0,87663	2,4456	1,0752
-12,289	3,4381	-11,333
-3,8539	2,4456	-7,3627
-9,3122	2,4456	-18,282
11,032	3,9343	0,0825
3,5893	2,9419	-6,8663
10,04	1,9494	3,5569
3,5893	5,9193	-0,41385
8,5514	2,4456	5,046
0,11579	3,4381	-2,8956
7,0627	-1,5243	6,535
-1,3728	-4,9979	-5,3773
4,5817	-4,0055	3,5569
-5,8387	-4,0055	-9,3481
-3,8539	-2,5167	-4,3846
-13,282	-5,4942	-9,3481
-0,87663	-6,4866	5,5423
5,0779	-4,9979	5,5423
8,5514	0,46068	6,535
6,5665	-1,028	14,477
-1,8691	-2,5167	7,0313
-6,3349	0,46068	-1,4065
6,5665	-1,5243	12,491
-4,8463	1,4532	1,5715
9,5438	-0,5318	11,002
-3,8539	0,95692	-3,8883
3,5893	-0,035559	3,0606
-13,778	1,9494	-12,326
-10,305	-1,028	-3,8883
-8,816	2,4456	-2,3992
3,0931	-2,5167	1,5715
8,5514	2,4456	6,535
-0,38042	2,9419	-1,4065
-2,3653	-0,035559	-1,4065
-2,8615	-2,0205	-1,9029
-5,3425	-3,013	0,57885
-5,3425	-0,035559	2,5642
-4,3501	-0,035559	-1,9029
-5,3425	1,9494	-0,41385
-4,3501	2,9419	2,5642
2,5968	2,4456	13,484
-4,3501	0,95692	6,535
-8,816	3,9343	2,0679
-5,8387	-2,5167	1,0752
0,11579	0,95692	1,0752
-1,3728	1,4532	-0,41385
4,0855	1,4532	11,002
-5,8387	2,4456	1,5715
-4,8463	-1,028	-0,41385
-7,3274	-0,5318	-3,8883
4,5817	-4,0055	-1,4065
-4,3501	-4,0055	-4,3846
3,0931	-10,953	9,5131
-12,786	-8,4716	-1,4065
-6,3349	-7,9754	-0,41385
-3,3577	-6,9829	1,5715
-1,3728	-5,9904	9,5131
1,6044	-4,9979	2,5642
2,1006	-3,5092	5,5423
-3,8539	-1,5243	3,0606
0,612	-4,0055	11,002
-3,8539	-3,5092	3,5569
7,5589	-4,0055	18,944
10,04	-4,5017	23,907
-2,3653	-4,5017	1,0752
-2,8615	-3,5092	-4,3846
-2,3653	-3,013	-3,8883
-0,38042	-4,5017	1,0752
-1,3728	-5,9904	-0,41385
-7,3274	-5,4942	-1,9029
1,6044	-9,4641	2,5642
-2,3653	-5,9904	1,5715
3,5893	-0,5318	3,5569
-0,38042	1,9494	3,5569
-2,3653	-1,5243	-5,3773
-11,297	1,9494	-10,341
-8,816	-0,035559	-10,341
4,0855	1,9494	-3,3919
8,5514	3,9343	0,57885
0,612	3,9343	-3,8883
5,5741	-0,5318	5,5423
-5,3425	1,9494	-7,859
-2,8615	-1,5243	5,5423
-4,3501	1,9494	-6,37
0,11579	3,9343	-0,41385
-3,8539	1,9494	-0,41385
5,5741	1,9494	26,389
-2,3653	1,4532	21,425
6,5665	0,46068	38,797
-12,289	1,4532	14,477
1,6044	1,9494	14,477
-2,3653	-9,4641	4,5496
6,0703	-11,945	22,418
-12,786	-8,9678	-6,37
-2,8615	-7,4791	13,484
-6,8312	-2,0205	-2,3992
4,5817	-3,013	11,995
5,0779	-1,028	1,5715
7,5589	-3,5092	8,024
-1,8691	-4,5017	1,5715
4,0855	-3,013	8,024
-6,3349	-2,0205	2,0679
-16,755	-2,0205	1,5715
-22,71	-3,013	-20,268
3,0931	-3,013	3,5569
-12,786	-2,0205	-20,268
-23,702	1,9494	-27,217
-5,8387	1,9494	-10,837
-15,763	1,9494	-26,72
-1,8691	0,95692	0,57885
17,979	-2,5167	13,484
-2,3653	-3,5092	-6,37
11,529	-1,028	9,5131
-5,3425	1,4532	-2,3992
13,017	-2,0205	23,411
-4,8463	-0,5318	0,57885
-1,8691	0,95692	-12,326
-1,8691	4,9268	-6,8663
4,5817	2,9419	17,455
-13,282	2,9419	-2,3992
5,0779	-1,028	30,856
-3,3577	-0,5318	6,0387
-3,3577	2,4456	22,914
0,11579	2,4456	7,5277
-0,38042	2,9419	15,469
-3,3577	2,9419	2,0679
15,498	-2,0205	28,871
-4,3501	-0,035559	2,5642
-8,816	5,4231	-3,3919
-1,8691	2,9419	0,57885
7,0627	2,9419	18,944
-1,8691	-1,5243	7,5277
11,529	-7,9754	30,36
-1,3728	-6,4866	10,506
20,46	-7,4791	44,257
-1,8691	-7,9754	8,024
3,0931	-7,9754	-3,3919
2,5968	-7,4791	3,5569
16,491	-8,9678	23,411
1,6044	-4,0055	5,5423
5,0779	-2,0205	20,433
2,1006	-1,5243	-2,8956
16,987	-0,035559	32,345
-8,3198	-0,035559	-6,37
-7,3274	-2,5167	13,484
-3,3577	-1,028	1,5715
18,476	-4,5017	29,367
-0,38042	-4,0055	6,535
-15,763	-2,0205	-8,3554
0,11579	-2,5167	1,5715
-11,793	4,4306	-11,333
2,5968	-5,4942	-2,3992
-24,199	-2,0205	-34,662
-5,3425	0,46068	-4,3846
-0,87663	1,9494	1,5715
-15,267	1,4532	-12,823
-11,793	1,9494	-28,706
-7,8236	4,4306	-11,83
-3,8539	2,4456	-17,786
-6,8312	3,9343	-11,333
9,5438	5,4231	33,338
-3,3577	7,408	4,5496
19,468	8,4005	38,797
3,5893	7,408	3,5569
3,5893	7,9042	7,5277
2,5968	6,4155	9,5131
0,11579	2,4456	18,447
-8,3198	2,9419	-6,37
-13,778	2,4456	6,535
-0,38042	1,4532	-0,91019
-7,8236	3,4381	-0,41385
5,0779	2,9419	3,5569
5,0779	-4,0055	4,0533
-0,38042	-6,9829	-6,37
-13,282	-3,5092	-24,238
-4,3501	-5,4942	-9,8444
1,1082	-6,4866	0,0825
20,46	-8,4716	22,418
4,5817	-5,9904	6,535
4,5817	-4,9979	8,5204
-5,8387	-7,4791	-10,341
-5,3425	-3,013	3,5569
7,0627	-2,5167	-0,41385
2,1006	-3,013	5,046
5,0779	-0,035559	9,5131
-3,3577	-1,028	7,5277
-4,3501	-1,5243	5,046
-7,3274	-1,5243	0,57885
-8,816	-4,5017	2,5642
-7,3274	-4,5017	-6,37
0,612	-4,0055	-1,4065
2,1006	-8,9678	6,535
2,5968	-4,5017	16,462
3,0931	1,9494	21,922
3,5893	-0,5318	30,856
4,0855	0,46068	18,944
8,5514	1,9494	30,36
-0,87663	0,46068	11,498
-9,3122	-0,5318	11,498
-8,3198	-0,035559	3,5569
-4,8463	-1,5243	11,498
-3,3577	-2,5167	15,469
10,536	-2,5167	15,966
0,612	-0,5318	6,535
6,5665	0,46068	9,5131
-1,3728	-1,028	1,5715
4,5817	-2,0205	3,5569
-12,289	-3,013	-4,881
-3,3577	-3,5092	-6,37
-2,8615	-1,5243	-7,3627
1,6044	-3,013	-2,8956
5,0779	-5,9904	2,0679
8,0552	-7,9754	7,5277
-3,3577	-9,4641	1,5715
-1,8691	-5,9904	4,5496
8,0552	-4,0055	18,447
7,5589	-5,4942	1,5715
-9,3122	-5,9904	-18,779
-0,38042	-7,4791	-8,3554
-8,3198	-6,4866	-24,238
-8,3198	-5,4942	-19,275
-1,8691	-4,5017	-6,37
3,0931	-4,0055	-8,3554
0,11579	-2,0205	0,0825
10,04	-1,5243	8,024
-8,3198	-1,028	-1,4065
-0,87663	1,9494	-0,41385
3,0931	1,4532	11,498
0,612	0,46068	3,0606
-13,282	0,46068	-24,238
-1,3728	1,4532	-3,3919
-5,3425	-2,0205	3,0606
1,1082	1,4532	14,477
-4,3501	2,4456	11,002
-2,8615	1,4532	13,484
4,0855	1,9494	6,535
4,5817	1,4532	7,5277
-7,3274	6,9118	-8,3554
6,0703	5,9193	15,469
-8,816	2,4456	3,5569
-7,3274	1,4532	9,0167
2,1006	1,9494	9,5131
7,0627	1,4532	11,498
0,11579	2,4456	1,5715
4,0855	1,9494	3,5569
-5,8387	1,9494	11,002
0,612	3,4381	11,498
-7,3274	3,9343	3,0606
10,536	8,4005	11,498
6,0703	6,4155	-1,4065
10,536	5,9193	9,5131
-7,3274	1,9494	-12,326
-2,3653	-3,013	-7,859
-8,3198	-4,9979	-13,815
2,1006	-5,4942	6,535
3,5893	-4,5017	0,0825
8,5514	-3,013	6,535
4,0855	-5,4942	-3,3919
6,0703	-6,9829	1,5715
1,6044	-2,5167	-2,3992
4,5817	-2,5167	9,0167
-2,3653	-1,5243	-6,8663
-0,38042	-2,0205	9,0167
-8,3198	-4,0055	-10,341
-4,8463	-4,0055	-0,41385
-7,8236	-2,0205	-8,3554
2,5968	-4,9979	1,5715
-11,297	-3,013	-12,823
3,0931	-4,0055	-7,3627
0,612	-4,0055	-2,3992
12,025	0,46068	10,506
1,6044	-1,5243	-0,41385
5,0779	-0,035559	5,5423
-8,816	0,46068	-19,275
0,612	-1,028	-17,29
-2,3653	1,9494	-12,326
4,5817	1,9494	2,5642
0,11579	3,9343	-7,3627
7,5589	3,4381	5,5423
0,11579	3,9343	-6,8663
5,0779	4,9268	9,5131
4,5817	7,408	-0,91019
13,017	5,9193	7,0313
1,1082	5,4231	-4,3846
6,5665	4,4306	4,5496
-4,3501	5,9193	0,0825
2,5968	6,4155	12,491
-7,3274	5,9193	-0,41385
7,0627	4,9268	9,5131
0,11579	4,4306	-4,3846
21,949	2,4456	30,856
-7,3274	0,95692	-6,37
5,5741	-1,5243	15,469
3,0931	-4,5017	11,498
13,017	-5,9904	17,455
6,5665	-1,5243	8,5204
6,5665	-1,5243	9,5131
1,6044	-2,0205	2,5642
6,0703	-1,5243	6,535
-13,282	-4,0055	-22,749
9,5438	-4,5017	33,338
-4,8463	-3,013	-0,41385
0,612	-5,9904	5,046
3,0931	-4,0055	6,0387
12,025	-1,5243	18,447
8,5514	-3,5092	12,491
3,5893	-1,5243	8,5204
6,0703	-2,5167	-0,41385
14,506	-3,5092	3,5569
7,0627	-3,013	-3,3919
6,5665	-4,0055	3,5569
-7,8236	-7,9754	-12,823
-19,733	-6,4866	-23,742
-12,786	-3,5092	-26,72
5,0779	2,4456	-7,3627
-0,38042	0,46068	-9,3481
9,0476	2,4456	14,477
-3,8539	2,9419	14,973
9,0476	-0,035559	17,951
1,6044	1,9494	10,506
12,025	0,46068	18,447
20,957	-0,5318	17,455
12,025	1,9494	7,5277
5,5741	0,95692	-0,91019
5,0779	2,4456	-4,3846
1,1082	3,9343	-4,3846
4,0855	3,9343	5,046
6,0703	5,9193	6,535
11,032	3,4381	17,951
2,5968	4,9268	7,5277
4,5817	4,4306	14,477
-16,259	3,9343	-16,297
-6,3349	-4,0055	2,5642
8,0552	-10,953	31,849
0,612	-11,945	7,5277
-2,8615	-6,9829	3,0606
7,5589	-4,0055	17,455
3,5893	-3,5092	2,5642
3,0931	-0,035559	14,973
1,1082	-1,028	11,498
8,0552	0,46068	12,491
4,5817	-3,5092	13,484
8,0552	-5,4942	8,5204
-9,3122	-3,013	-10,341
-1,8691	-4,9979	-0,91019
-8,3198	-4,0055	-9,3481
-5,3425	-3,013	-6,37
-6,8312	-2,0205	-10,837
12,025	-6,4866	9,0167
19,964	-5,9904	17,455
2,5968	-5,4942	6,535
-0,87663	-1,5243	9,0167
-15,763	-2,5167	-11,333
-5,8387	4,9268	-1,4065
-4,8463	7,9042	0,57885
4,0855	8,4005	0,57885
13,513	6,9118	10,506
3,5893	4,4306	1,5715
4,0855	3,4381	2,0679
8,5514	3,9343	17,455
10,536	2,4456	-0,41385
3,5893	2,4456	-12,326
-14,274	3,9343	-29,698
-11,297	3,9343	-9,3481
-5,3425	7,408	-2,3992
-10,801	5,4231	-3,3919
-3,3577	4,4306	6,0387
2,5968	2,9419	8,5204
8,5514	3,4381	12,491
0,612	2,9419	4,5496
2,1006	2,4456	16,958
-4,8463	0,95692	3,0606
-5,8387	-1,5243	0,57885
-3,3577	-6,9829	-2,3992
-1,8691	-6,4866	0,0825
-2,3653	-5,4942	0,57885
2,1006	-5,9904	11,498
3,5893	-4,5017	3,5569
5,5741	-4,9979	9,0167
-1,8691	-6,9829	7,5277
16,491	-4,0055	15,469
9,5438	-1,028	8,024
2,5968	-1,028	7,5277
0,612	0,46068	13,484
-1,3728	-1,5243	14,477
-4,8463	-1,028	9,0167
8,0552	-2,0205	11,498
6,5665	-2,0205	9,5131
15,498	0,95692	20,929
3,5893	1,9494	9,5131
4,5817	0,46068	12,491
1,1082	-0,035559	5,5423
-18,244	-5,4942	-20,268
-5,3425	-0,035559	-14,312
-4,8463	-2,0205	-6,8663
-10,801	-0,035559	-12,326
0,612	0,95692	1,5715
-2,3653	0,46068	-1,9029
1,6044	-0,5318	1,5715
-1,3728	3,9343	-7,3627
6,5665	-1,028	-8,8517
4,0855	0,46068	-8,3554
5,0779	-2,0205	-4,881
-19,236	-2,5167	-27,217
-7,3274	-0,035559	-7,3627
-14,771	-0,5318	-16,297
-1,3728	2,4456	-14,312
-3,8539	1,9494	-6,8663
6,0703	3,9343	4,5496
-0,87663	3,9343	3,5569
3,0931	3,9343	15,469
-2,3653	3,9343	7,0313
0,11579	-1,5243	11,498
4,0855	-6,9829	5,046
8,0552	-8,4716	11,498
-10,305	-4,9979	-8,3554
1,6044	-4,0055	6,535
-1,3728	-0,5318	7,5277
14,01	-3,5092	22,418
3,5893	-3,5092	6,535
8,0552	-4,0055	12,491
5,0779	-6,4866	7,5277
7,5589	-5,4942	12,491
-3,3577	-5,4942	6,0387
-4,8463	-6,9829	1,5715
-4,8463	-5,4942	3,5569
7,0627	-2,5167	9,5131
0,11579	-3,013	5,046
-0,87663	-4,0055	1,5715
-19,733	-0,035559	-11,333
3,5893	-2,5167	14,477
-1,3728	-1,028	6,535
2,1006	-4,0055	9,0167
6,0703	2,9419	5,5423
19,468	0,95692	35,323
6,0703	2,9419	6,535
4,5817	2,9419	6,535
1,6044	-1,028	-1,4065
-4,3501	-1,028	-9,8444
6,5665	-2,0205	-13,319
4,5817	-3,5092	-5,8737
-6,3349	-0,035559	-6,37
-15,763	1,4532	-18,282
-8,3198	3,9343	-5,3773
2,1006	9,8892	10,506
-2,8615	5,9193	9,5131
5,0779	6,9118	14,973
2,1006	7,408	12,491
1,1082	6,4155	16,462
-2,8615	6,9118	10,009
0,612	5,4231	11,002
-10,305	5,9193	-5,3773
1,1082	5,9193	-7,859
-4,3501	1,9494	-9,3481
5,5741	-4,0055	2,0679
3,5893	-4,9979	-0,41385
7,0627	-7,4791	7,5277
0,11579	-4,9979	7,5277
2,5968	-5,4942	10,506
13,017	-6,4866	19,936
5,5741	-4,9979	5,046
1,6044	-6,9829	1,5715
-0,38042	-0,5318	5,046
-3,3577	-3,5092	3,5569
1,6044	-6,4866	7,5277
-8,816	-5,9904	-2,3992
4,5817	-4,0055	7,0313
-0,87663	-2,5167	-0,41385
7,0627	-3,5092	10,506
-12,786	-1,5243	-0,41385
-0,87663	-1,5243	3,5569
-5,3425	0,46068	-7,3627
8,5514	-3,013	7,0313
-0,38042	-3,5092	0,57885
7,0627	-1,5243	7,5277
-13,778	-2,5167	-5,3773
-15,763	-3,013	-15,801
-15,267	-4,0055	-8,3554
-9,3122	-2,5167	0,57885
-11,297	-5,4942	-20,764
4,5817	-2,0205	3,5569
1,6044	2,4456	8,5204
5,5741	1,4532	15,966
-0,38042	2,9419	7,5277
4,5817	3,9343	17,455
1,6044	1,9494	9,5131
3,0931	2,4456	17,455
-0,38042	3,4381	13,484
6,0703	2,4456	30,36
-16,259	6,4155	-2,3992
-1,3728	3,9343	17,455
-15,267	3,9343	0,57885
-5,8387	2,4456	0,57885
1,6044	-3,5092	4,5496
4,0855	-6,4866	6,535
-5,8387	-8,4716	-4,3846
0,612	-2,5167	1,5715
-7,3274	-3,5092	-10,341
-8,816	-5,9904	-27,217
2,5968	-6,9829	-15,801
9,5438	-6,9829	-9,8444
3,0931	-4,5017	-15,304
2,5968	-3,013	-12,326
-2,3653	-1,5243	-16,297
-3,3577	0,95692	0,57885
0,612	-2,5167	-2,8956
5,0779	-1,5243	1,5715
-3,3577	1,4532	-7,3627
-1,3728	1,4532	-1,4065
-1,8691	0,46068	-8,3554
-1,8691	-0,035559	-10,837
-12,289	-1,028	-26,224
6,5665	-2,5167	-10,341
-5,8387	-6,4866	-2,3992
-0,38042	0,95692	-8,3554
-11,297	-0,5318	-15,304
-0,38042	2,9419	-2,3992
0,11579	-1,5243	-2,3992
11,032	-0,5318	-0,41385
6,0703	-0,035559	6,535
3,0931	-1,028	9,0167
-2,8615	1,9494	-1,4065
-0,38042	-1,028	7,5277
-19,236	1,9494	-17,29
-2,3653	-0,5318	9,5131
0,612	1,4532	7,0313
-0,38042	3,9343	15,469
-9,3122	1,9494	9,5131
-9,8084	3,9343	15,469
-2,3653	3,4381	21,425
-3,3577	0,46068	31,352
-2,8615	1,4532	26,885
4,5817	2,4456	26,885
11,529	-3,013	33,338
9,5438	-3,5092	27,382
16,987	-7,4791	36,316
5,5741	-5,4942	28,871
-0,87663	-1,5243	17,455
2,5968	-4,0055	7,0313
-1,8691	-3,5092	9,5131
0,612	-3,013	6,535
-11,793	-2,0205	9,0167
-2,3653	-4,9979	-3,3919
-8,816	-4,0055	-12,823
-2,3653	-4,0055	-7,859
-0,38042	-2,5167	-16,793
6,0703	-4,0055	-14,808
15,995	-4,9979	-3,3919
6,0703	-5,4942	-14,808
-1,8691	-4,9979	-24,735
1,1082	-5,4942	-14,312
6,0703	-2,0205	-8,3554
16,491	0,95692	-5,3773
10,536	-2,0205	0,0825
7,0627	-0,035559	-12,326
-6,3349	3,4381	-26,224
-0,87663	2,9419	-10,837
-9,3122	-2,5167	-16,793
8,0552	-1,028	-8,8517
5,0779	0,95692	-8,8517
4,5817	0,46068	-10,837
3,0931	4,4306	-9,3481
0,612	2,4456	-4,881
-4,3501	3,4381	5,5423
5,5741	1,9494	2,0679
3,5893	0,95692	-6,37
7,5589	0,95692	8,5204
-10,305	2,9419	-0,91019
-11,793	3,9343	3,5569
-8,3198	1,9494	6,0387
0,11579	5,4231	16,462
18,476	4,4306	25,396
6,0703	3,9343	10,009
17,979	2,4456	25,892
3,0931	-4,9979	15,966
-2,8615	-5,4942	9,0167
-5,8387	-7,9754	9,5131
-12,786	-5,9904	5,5423
1,6044	-4,5017	11,002
1,6044	-4,0055	10,506
-0,87663	-3,5092	3,5569
-9,3122	-3,5092	-0,91019
0,11579	-2,5167	17,455
-10,801	-3,013	5,046
11,032	-3,013	18,447
4,0855	-5,4942	11,498
8,5514	-2,5167	15,469
-0,87663	-3,5092	10,009
2,1006	0,46068	15,469
-0,87663	1,9494	7,5277
0,612	1,9494	17,455
-24,695	1,9494	-26,72
4,5817	-0,035559	18,447
-8,3198	0,46068	7,5277
-1,3728	-5,4942	17,455
-8,3198	-0,035559	6,535
1,1082	0,95692	10,009
-4,3501	2,9419	0,57885
7,0627	0,46068	5,046
4,0855	0,95692	3,0606
3,5893	-1,5243	2,0679
-0,38042	-1,028	3,5569
4,5817	-0,035559	6,535
-3,8539	1,4532	-16,297
4,5817	-0,5318	-2,8956
-11,297	-0,5318	-24,238
-0,87663	0,95692	-6,8663
-6,3349	3,9343	-7,3627
4,5817	3,4381	4,5496
-8,3198	2,4456	-4,3846
-1,3728	2,4456	5,046
1,1082	2,4456	-1,9029
8,5514	-0,5318	4,5496
0,11579	1,4532	6,0387
-2,3653	-6,4866	7,5277
-0,38042	-8,4716	6,535
5,0779	-6,4866	12,987
-4,3501	-4,0055	-4,3846
0,11579	-1,028	1,5715
-9,3122	-2,5167	-10,837
-1,3728	-0,5318	5,046
0,11579	-0,5318	5,046
0,11579	-2,5167	5,5423
-9,3122	-0,5318	1,5715
3,0931	2,4456	3,5569
4,5817	1,4532	-2,3992
7,0627	1,4532	1,5715
-2,3653	0,46068	-8,3554
-0,38042	0,46068	-2,3992
-8,816	0,46068	-9,3481
-1,3728	-4,0055	-8,3554
-3,3577	-4,0055	-10,341
0,11579	-4,0055	-5,8737
-5,3425	-0,035559	-14,312
-2,3653	-2,0205	-4,3846
-3,3577	4,4306	-8,3554
2,5968	2,9419	-5,8737
7,5589	0,46068	-14,808
10,04	1,9494	-6,37
3,0931	-0,035559	-11,333
-4,3501	-1,028	-14,312
-5,8387	0,46068	-14,312
1,1082	3,4381	-3,3919
-20,725	3,9343	-30,195
-0,38042	5,4231	-6,8663
-5,8387	1,4532	-13,815
-2,3653	-0,035559	-6,37
0,11579	-1,5243	-2,8956
4,5817	-3,5092	8,5204
-0,87663	-0,035559	-4,881
9,5438	-0,035559	8,5204
6,5665	5,9193	0,57885
4,5817	4,4306	-0,41385
-1,8691	4,4306	0,57885
5,5741	-2,5167	-1,4065
-1,3728	-7,9754	-1,9029
-8,3198	-9,9603	-3,8883
-6,8312	-6,9829	-10,341
6,5665	-7,4791	2,5642
0,612	-6,4866	-3,3919
11,529	-4,9979	17,951
-2,3653	-5,4942	4,5496
0,11579	-5,4942	11,498
7,5589	-5,9904	-0,41385
13,017	-4,5017	15,469
-6,8312	-2,0205	-8,3554
-1,8691	-4,9979	2,5642
-8,816	-4,5017	-5,3773
-5,3425	-5,9904	-0,41385
-2,3653	-3,5092	3,0606
13,513	-4,9979	14,477
2,5968	-1,5243	3,5569
-0,38042	1,9494	5,046
-2,8615	0,95692	8,5204
-9,3122	-2,5167	1,0752
-16,755	1,9494	4,5496
-5,8387	2,4456	33,338
-8,816	3,4381	16,958
11,529	3,9343	39,294
2,5968	3,9343	28,374
-0,87663	3,4381	26,389
0,612	4,9268	24,9
-8,3198	2,9419	12,987
3,0931	3,9343	11,498
4,0855	1,9494	10,506
-4,3501	2,9419	-0,41385
7,5589	-0,035559	13,484
-0,38042	2,4456	2,0679
1,1082	4,4306	6,0387
-3,3577	2,9419	3,5569
4,0855	4,4306	1,5715
3,0931	6,9118	7,0313
-7,8236	5,4231	-1,4065
-4,8463	4,9268	6,0387
-10,801	3,4381	-3,8883
-14,274	-4,0055	-0,41385
-0,38042	-5,9904	9,0167
-2,3653	-5,9904	-4,881
4,0855	-4,9979	6,535
4,0855	-2,0205	3,5569
0,612	-7,4791	6,535
-4,3501	-8,9678	-2,3992
-5,3425	-5,9904	-0,91019
2,5968	-8,9678	-6,37
-11,297	-7,4791	-25,231
-7,8236	-4,5017	-22,749
-17,252	-4,5017	-11,83
-2,8615	-2,5167	5,5423
0,11579	-3,5092	9,5131
0,612	-2,0205	11,002
6,0703	-2,0205	7,5277
4,0855	-3,013	4,5496
2,5968	-5,9904	-2,3992
-0,38042	-5,4942	-0,41385
-4,8463	-2,0205	-12,823
-5,8387	-4,0055	-12,326
4,5817	1,9494	-12,823
-0,38042	2,4456	-18,282
5,5741	0,46068	-24,238
3,0931	-0,035559	-18,282
7,0627	-1,028	-12,326
-2,3653	-1,5243	-16,297
-2,3653	-2,5167	-6,37
3,0931	-1,5243	1,0752
1,1082	-0,5318	-4,3846
-1,3728	-2,5167	-1,4065
6,5665	-1,028	5,5423
-8,816	-1,5243	-6,8663
7,5589	-1,5243	16,958
-1,3728	-1,028	11,498
15,995	-0,035559	25,396
0,612	0,46068	3,5569
8,5514	-0,5318	11,498
0,11579	-0,035559	1,5715
15,498	-0,5318	16,462
-11,793	-5,9904	-17,29
15,498	-12,441	11,498
-3,3577	-7,9754	-12,326
12,025	-11,449	21,425
-0,87663	-8,4716	11,002
11,529	-10,457	26,389
1,6044	-4,5017	15,469
0,612	-3,5092	31,849
0,612	-1,028	22,914
2,5968	0,46068	24,403
-6,3349	0,46068	11,498
-0,38042	-2,0205	21,425
-22,214	-0,035559	0,57885
-18,244	-3,5092	1,0752
-1,3728	-1,5243	-0,91019
15,498	-0,035559	17,455
3,0931	-1,5243	6,0387
-9,8084	1,9494	-16,297
-0,38042	-1,028	2,5642
-11,793	-0,035559	-9,8444
-2,3653	-4,0055	0,57885
19,964	2,9419	25,396
2,1006	3,9343	3,5569
-1,8691	0,46068	-0,91019
-2,8615	4,4306	-3,8883
-0,87663	3,4381	0,0825
-11,297	3,9343	-12,326
-8,3198	0,95692	-13,815
1,6044	0,95692	-6,37
20,957	0,46068	19,44
2,1006	-0,5318	-10,837
9,0476	-0,035559	1,5715
-4,3501	-0,5318	-14,808
14,01	2,9419	-2,3992
6,0703	1,9494	-10,341
7,5589	2,4456	2,5642
-5,3425	-1,5243	-18,282
-3,8539	-3,013	-11,83
-6,8312	-1,5243	-16,297
13,513	-4,0055	14,477
-12,289	-6,9829	-16,793
-5,8387	-10,953	-13,319
5,0779	-13,93	-9,3481
22,941	-10,457	26,885
-3,8539	-5,9904	-2,3992
14,01	-5,9904	33,338
-6,8312	-5,4942	-1,4065
-3,3577	-4,5017	-14,312
-5,8387	-4,5017	-6,37
-20,229	-3,5092	-8,3554
4,0855	-5,9904	19,44
-7,8236	-4,9979	7,0313
-11,297	-4,0055	-12,823
-4,3501	-4,5017	3,5569
2,1006	-1,5243	9,5131
1,6044	-4,0055	14,477
0,612	-2,0205	6,535
19,964	-2,0205	19,44
-2,8615	-1,028	3,5569
12,025	-2,5167	17,455
-3,8539	-5,9904	5,046
-1,8691	7,408	-4,881
-3,3577	5,9193	-0,91019
-11,793	2,9419	-10,341
-6,8312	4,4306	-4,3846
13,017	1,4532	29,367
-9,3122	0,46068	4,5496
25,919	-2,0205	58,651
5,5741	-1,5243	26,885
4,0855	-1,028	7,5277
-1,8691	1,9494	1,5715
13,513	0,46068	22,418
-5,3425	0,95692	-6,8663
0,11579	2,9419	-6,8663
-15,763	0,46068	-32,18
6,5665	0,46068	13,98
-10,305	0,46068	-0,91019
-5,3425	1,4532	1,0752
0,612	9,8892	-2,8956
1,6044	2,9419	4,0533
1,6044	-3,013	-7,859
-3,3577	-4,0055	3,5569
-1,3728	-9,4641	7,5277
-0,87663	-6,4866	7,0313
-3,8539	-5,4942	4,5496
-15,763	-3,5092	-10,837
-9,8084	-4,5017	-9,3481
6,0703	-5,4942	1,0752
-21,221	-2,5167	-31,684
-8,3198	-3,013	-23,742
2,5968	-2,0205	0,57885
-4,8463	-0,5318	-17,786
0,11579	0,95692	0,57885
-0,38042	-0,035559	1,0752
-2,3653	0,95692	-6,37
-0,87663	0,95692	-4,3846
-1,8691	-0,035559	-5,8737
3,0931	1,4532	9,5131
-9,3122	0,46068	-3,8883
-3,3577	0,46068	7,5277
-4,3501	-4,0055	10,506
-1,8691	1,9494	-0,41385
0,612	1,9494	4,0533
2,5968	1,9494	13,484
0,11579	-0,035559	2,5642
3,5893	2,9419	11,002
-3,8539	4,9268	6,0387
5,5741	1,9494	6,535
5,5741	1,4532	7,0313
10,04	3,4381	11,995
-0,38042	3,4381	1,5715
4,0855	2,4456	3,0606
-24,695	2,4456	-28,706
10,04	0,95692	12,491
-8,3198	3,4381	-7,3627
0,612	6,9118	3,5569
-1,3728	4,4306	3,5569
-5,8387	6,4155	0,57885
-3,8539	4,4306	1,5715
-0,87663	2,9419	7,0313
0,612	0,95692	-7,3627
7,5589	-7,4791	-0,91019
-1,3728	-11,449	-12,326
2,5968	-10,457	-6,37
0,11579	-4,9979	-10,837
6,0703	-5,9904	-3,3919
-6,3349	-5,4942	-15,304
7,0627	-7,9754	-2,3992
-5,3425	-6,4866	-6,37
-3,3577	-5,4942	-4,3846
-7,3274	-3,5092	-4,3846
1,6044	-5,4942	12,491
-5,8387	-4,9979	7,5277
9,5438	-1,028	14,973
4,0855	-1,028	9,5131
4,5817	-1,5243	1,0752
-8,816	0,46068	-1,4065
3,0931	-0,035559	11,498
-11,297	0,46068	3,0606
-5,3425	-0,5318	15,469
-6,8312	-4,5017	12,491
-0,38042	-2,5167	20,929
-13,778	3,9343	5,046
4,0855	5,9193	31,352
2,5968	7,408	36,812
5,0779	5,9193	41,279
3,0931	5,9193	26,389
11,529	7,408	29,367
1,6044	3,4381	18,944
5,5741	1,9494	28,871
-2,8615	2,9419	18,447
-9,3122	5,4231	8,024
-13,778	4,4306	6,535
5,0779	3,9343	10,506
-2,3653	2,4456	-2,8956
0,11579	2,9419	-0,41385
-0,87663	3,4381	5,046
2,5968	1,9494	7,5277
-6,3349	3,9343	-0,41385
2,5968	1,9494	9,5131
7,5589	6,9118	12,491
0,11579	-0,035559	3,5569
-0,38042	-3,5092	-1,4065
0,612	-4,5017	1,5715
-7,3274	-0,5318	-13,319
-11,793	-2,0205	-31,187
-6,8312	-2,0205	-40,122
-3,8539	-3,013	-40,122
-5,8387	-5,4942	-38,136
-2,8615	-4,0055	-34,165
-2,8615	-3,5092	-35,158
-1,3728	-4,9979	-29,698
-6,3349	-4,9979	-30,195
8,5514	-4,9979	-20,764
-4,8463	-4,9979	-26,224
0,612	-4,0055	-10,837
3,5893	-4,9979	-0,41385
1,1082	-3,5092	-3,8883
-8,816	3,9343	5,5423
3,0931	-1,5243	-1,4065
9,0476	-3,013	17,455
6,0703	-2,0205	9,5131
-13,778	2,4456	-13,815
5,0779	2,9419	8,5204
-5,3425	1,9494	1,0752
1,1082	-1,5243	9,5131
1,6044	0,46068	4,5496
12,521	10,882	15,469
0,11579	2,4456	6,0387
7,5589	3,9343	12,987
-15,267	4,4306	-3,3919
2,5968	1,9494	15,469
-18,244	2,9419	-18,779
0,612	-2,0205	11,498
2,5968	-3,5092	11,498
5,0779	-2,0205	14,973
-4,8463	6,4155	1,0752
2,1006	1,4532	15,469
-8,3198	3,9343	3,5569
5,5741	2,4456	14,973
3,5893	2,4456	12,491
-1,8691	-1,028	9,0167
-3,8539	-4,5017	11,002
-5,8387	-8,4716	9,0167
-9,8084	-6,9829	1,0752
5,5741	-3,013	14,477
3,0931	-3,5092	8,5204
3,0931	-4,5017	14,973
-0,87663	-3,5092	9,5131
1,1082	-2,0205	15,469
-4,8463	-2,5167	5,5423
-7,3274	-4,0055	5,046
1,1082	-3,5092	6,535
-3,3577	-2,5167	-8,3554
-22,71	-1,028	-22,253
-4,3501	-2,0205	-2,3992
-7,3274	-0,5318	-3,8883
1,1082	-0,035559	7,5277
5,0779	-1,028	11,995
4,5817	-2,0205	6,535
14,01	-2,0205	29,367
6,5665	-6,9829	10,009
12,025	-0,035559	27,382
6,5665	7,9042	12,987
-1,3728	0,95692	7,5277
-2,3653	0,46068	2,5642
-7,3274	0,46068	-4,881
-3,3577	1,9494	0,57885
-12,786	-0,5318	-6,37
2,5968	0,46068	4,0533
-2,3653	-1,5243	0,0825
-3,3577	0,95692	5,5423
4,5817	4,4306	13,484
12,025	7,9042	9,5131
1,1082	5,9193	3,5569
0,11579	3,9343	0,0825
-6,3349	3,4381	-9,3481
-7,3274	2,9419	-5,3773
-0,87663	5,9193	-1,4065
9,0476	2,4456	7,0313
2,5968	1,9494	1,5715
14,01	4,4306	12,491
-12,786	-3,013	-17,786
2,1006	-7,9754	2,5642
1,6044	-7,9754	17,455
0,11579	-5,4942	-5,3773
-4,8463	-4,9979	-13,815
2,5968	-7,4791	-3,3919
2,5968	-6,4866	-3,8883
7,0627	-7,4791	-0,41385
5,0779	-4,5017	-5,8737
7,5589	-2,0205	0,0825
3,5893	-0,5318	-3,3919
4,0855	-0,035559	5,5423
1,6044	1,9494	7,5277
-5,8387	1,9494	1,5715
-9,8084	0,95692	1,0752
0,612	-0,5318	12,987
-0,87663	-4,0055	4,5496
8,5514	0,46068	18,944
14,01	-2,0205	20,433
3,0931	-3,013	5,5423
-2,3653	-2,0205	-4,3846
2,1006	0,46068	1,0752
-3,8539	0,46068	-2,8956
6,5665	1,9494	-3,3919
-5,8387	-1,028	-16,793
4,0855	2,9419	-8,8517
-7,8236	2,4456	-7,3627
0,612	0,46068	1,0752
6,0703	-1,028	22,418
7,0627	-1,5243	7,0313
0,11579	-2,5167	-0,41385
8,0552	-1,5243	7,5277
6,0703	-2,0205	17,455
-0,38042	-0,5318	-0,41385
-6,3349	-1,028	-5,3773
7,0627	0,46068	16,462
0,11579	-1,028	-5,3773
2,1006	-2,0205	-2,3992
-9,3122	0,95692	-8,3554
5,5741	-2,5167	1,0752
-14,274	-5,4942	-11,333
2,1006	-9,9603	-0,91019
-2,3653	-10,457	0,57885
7,0627	-8,4716	9,5131
-6,3349	-4,9979	0,57885
-8,3198	-4,0055	3,5569
-11,297	-2,0205	7,0313
-7,3274	-1,5243	13,484
-15,763	-4,0055	-6,8663
8,0552	-2,5167	15,966
-0,87663	-3,013	-6,37
7,5589	-2,5167	17,455
-0,87663	-2,5167	-0,41385
3,5893	-2,5167	12,491
-5,8387	-1,028	-0,41385
0,11579	0,46068	12,987
-4,3501	1,9494	-8,8517
5,5741	1,4532	6,535
5,0779	-1,028	9,5131
8,5514	-1,5243	15,469
2,1006	-5,9904	3,5569
2,1006	2,4456	11,498
5,5741	2,4456	13,98
9,5438	-0,035559	11,498
-5,3425	1,4532	-4,3846
3,0931	-1,5243	7,0313
-12,289	-0,035559	-14,312
-4,3501	-2,0205	-5,3773
2,1006	-1,5243	-4,881
14,01	-1,028	1,5715
7,0627	1,4532	-6,37
9,0476	1,9494	-1,4065
1,1082	4,4306	-8,3554
0,612	2,4456	1,5715
-3,3577	2,4456	-3,3919
0,612	3,9343	-4,3846
-5,8387	0,95692	-14,808
-0,38042	1,4532	-4,3846
-3,3577	1,9494	-7,3627
6,0703	4,4306	5,5423
0,11579	0,46068	1,0752
3,5893	-3,5092	7,5277
4,5817	-4,0055	5,046
7,0627	-3,5092	6,0387
5,0779	-2,0205	9,5131
11,032	-2,5167	15,469
2,5968	-4,9979	5,5423
0,11579	-5,9904	5,5423
-6,8312	-6,4866	3,5569
3,5893	5,9193	11,498
-5,3425	-1,028	5,5423
1,1082	-1,028	12,491
-3,3577	-2,5167	13,484
-3,8539	-3,013	13,484
-4,8463	-3,5092	15,469
4,0855	-3,5092	20,433
1,6044	-3,5092	7,5277
5,0779	-3,013	13,484
-8,3198	-1,5243	5,046
-1,8691	-0,035559	9,5131
2,1006	5,9193	12,491
-1,8691	4,4306	10,009
-13,282	7,9042	-17,29
5,5741	4,4306	5,046
-10,801	2,9419	-7,859
0,612	2,4456	8,5204
-6,8312	1,9494	-3,3919
1,1082	-0,5318	5,5423
5,0779	1,9494	3,5569
13,017	1,9494	9,0167
1,6044	-0,5318	-0,91019
12,025	4,9268	9,5131
-2,3653	1,9494	-4,3846
-0,38042	0,46068	-0,41385
-11,793	-0,035559	-13,319
5,5741	0,46068	-4,3846
-5,8387	-1,5243	-16,297
0,11579	0,95692	-7,859
-2,8615	-1,5243	-8,8517
-4,3501	-3,5092	-4,3846
-6,3349	-0,5318	5,046
-2,3653	-8,9678	12,987
1,6044	-8,4716	8,5204
7,0627	-7,4791	15,469
2,1006	-4,0055	10,506
5,0779	-4,0055	17,455
-7,3274	-5,4942	7,0313
1,1082	-5,9904	15,469
2,1006	-5,4942	6,535
6,0703	-5,9904	6,0387
1,6044	-7,4791	2,5642
-4,8463	-7,9754	2,5642
-3,3577	-7,9754	-3,3919
0,11579	-4,0055	1,5715
-7,3274	-1,5243	-4,881
7,0627	-3,5092	10,009
0,612	-1,028	7,5277
2,5968	-0,035559	14,477
-4,3501	-1,5243	-1,4065
-0,38042	1,4532	9,5131
-3,8539	0,95692	3,5569
7,5589	-3,013	7,0313
-5,8387	0,46068	-4,3846
-7,3274	0,46068	-10,837
-4,8463	1,9494	-6,8663
-1,8691	2,4456	-1,4065
-1,8691	0,46068	-1,9029
-1,8691	1,9494	3,5569
-2,8615	0,95692	-10,341
5,5741	2,9419	0,57885
-2,3653	1,9494	-7,859
0,612	-0,5318	5,5423
-7,3274	1,9494	-6,37
-4,8463	-2,0205	6,0387
4,5817	5,9193	15,469
7,5589	1,4532	15,966
-0,87663	1,9494	5,5423
4,0855	-0,5318	11,002
-11,793	-1,028	-7,3627
-10,305	-1,5243	-6,8663
-11,297	-0,5318	-6,8663
3,5893	-5,9904	5,5423
-4,8463	-8,4716	-6,37
-0,87663	-8,4716	3,0606
-10,305	-5,9904	0,57885
7,0627	-1,5243	11,498
-0,87663	-0,5318	9,5131
0,612	-3,013	16,958
9,0476	-1,028	3,5569
12,521	-3,013	9,5131
6,5665	-1,5243	-4,3846
9,5438	-1,028	-2,8956
-11,793	-3,013	-30,195
2,1006	-2,5167	-5,3773
-5,3425	-1,5243	-28,706
2,5968	-1,5243	-11,333
-2,3653	-0,035559	-24,735
8,0552	0,46068	2,5642
11,032	0,46068	11,498
5,5741	-1,5243	-0,91019
6,5665	-5,4942	5,5423
9,5438	-5,9904	-9,3481
9,5438	-3,5092	4,5496
1,1082	-2,0205	-3,8883
-7,3274	-1,5243	-10,341
-13,282	-2,0205	-11,333
-14,771	-0,5318	-7,859
7,0627	10,882	12,987
-2,8615	2,4456	2,5642
-1,8691	1,9494	3,5569
2,1006	-0,035559	6,535
2,1006	-0,5318	11,995
-8,3198	-0,5318	10,506
-1,3728	-0,035559	12,987
0,11579	1,4532	6,535
5,0779	2,4456	12,491
1,6044	2,4456	2,0679
-13,282	3,9343	-4,881
-3,3577	8,8967	13,484
0,11579	6,9118	23,411
-30,153	7,9042	-13,319
7,5589	3,9343	18,944
6,5665	-2,0205	8,5204
9,0476	-5,4942	11,498
-12,289	-5,9904	-16,793
-1,8691	-2,5167	3,5569
-8,3198	-5,4942	-0,41385
3,5893	-3,5092	-0,91019
2,1006	-5,4942	-6,37
3,0931	1,4532	-0,41385
0,612	-1,5243	2,5642
-0,87663	-0,5318	-0,91019
-8,816	-2,5167	-13,815
-5,8387	-5,4942	3,5569
1,6044	-4,0055	1,0752
4,5817	-3,5092	5,5423
15,498	-1,5243	19,44
4,5817	-1,5243	9,0167
-0,87663	-2,0205	0,0825
3,5893	-0,035559	7,5277
2,5968	1,9494	5,046
6,5665	-2,0205	4,5496
8,0552	-2,0205	13,484
2,5968	1,4532	5,5423
-10,305	-0,035559	-13,815
-2,3653	1,9494	4,5496
-15,267	-0,035559	-6,37
3,0931	2,4456	5,5423
-0,38042	2,4456	1,5715
1,1082	-1,028	15,469
-1,8691	2,4456	9,5131
1,1082	5,9193	17,455
-4,8463	6,4155	13,484
-18,244	4,9268	-2,3992
-10,305	3,4381	-5,3773
2,1006	3,9343	8,5204
-7,3274	4,9268	-3,3919
4,0855	1,9494	11,002
0,612	4,4306	9,0167
1,6044	4,9268	14,477
5,0779	3,9343	6,535
11,529	0,95692	10,506
9,5438	-3,5092	9,0167
7,0627	-5,4942	10,506
3,0931	-5,9904	7,5277
-3,3577	-4,9979	6,535
-3,8539	-3,5092	8,024
15,002	-5,4942	14,477
9,0476	-4,0055	6,535
9,0476	-2,0205	8,5204
9,5438	-4,9979	9,0167
-0,38042	-3,013	2,5642
-1,3728	-1,028	-4,3846
4,0855	-3,5092	-0,41385
1,6044	-2,0205	-6,8663
1,1082	-4,9979	-5,3773
-4,3501	-4,9979	-14,312
4,5817	-6,9829	-6,8663
1,6044	-8,9678	-14,312
-1,3728	-7,9754	-9,8444
0,11579	-7,9754	-5,3773
4,5817	-4,9979	2,5642
-2,3653	-6,9829	1,5715
6,0703	2,9419	13,484
-1,3728	3,9343	5,5423
-4,3501	2,4456	2,0679
-14,274	0,46068	-12,326
0,612	1,4532	3,5569
-7,3274	1,9494	-9,8444
5,5741	2,4456	7,5277
0,11579	1,4532	2,5642
5,0779	-0,035559	4,5496
-4,3501	0,95692	-3,3919
14,01	5,4231	5,5423
4,5817	5,9193	-0,41385
0,11579	4,4306	-5,3773
-3,3577	6,9118	5,046
1,6044	4,4306	11,995
-9,3122	4,4306	-1,9029
0,612	3,9343	13,484
5,0779	1,4532	15,469
10,536	4,4306	21,425
4,0855	0,95692	15,966
6,5665	-4,0055	21,922
2,1006	-1,028	16,958
4,0855	-0,5318	21,922
4,5817	-2,0205	12,491
3,5893	1,9494	0,0825
-1,8691	-2,0205	3,5569
-1,3728	-4,5017	3,5569
-11,793	-4,0055	-5,8737
-2,3653	-5,4942	3,0606
-3,3577	-3,013	6,0387
12,025	-4,0055	21,425
3,0931	0,95692	12,491
5,5741	-0,5318	19,44
-2,3653	-0,5318	11,002
1,6044	-1,5243	11,498
7,5589	-3,013	9,0167
1,1082	-2,0205	-7,3627
-0,38042	-3,5092	-15,304
4,5817	-5,4942	-9,3481
-1,3728	-4,5017	-18,779
-1,3728	-0,5318	-13,815
-0,38042	1,4532	-15,801
6,5665	3,9343	-7,859
8,5514	1,9494	-25,231
12,521	3,4381	-10,341
4,0855	2,4456	-16,297
7,0627	2,9419	-7,3627
-0,38042	0,95692	-12,326
-0,87663	0,46068	-4,881
-11,297	1,9494	-18,282
0,11579	2,4456	-16,793
-4,3501	3,4381	-22,253
-5,3425	1,9494	-22,253
4,5817	4,4306	-6,37
8,0552	1,9494	5,5423
-2,3653	0,46068	-6,37
10,04	-2,0205	3,5569
3,5893	-0,5318	-2,3992
8,0552	-3,5092	7,5277
-18,74	1,4532	-13,319
-15,763	-8,4716	-8,3554
-11,297	-9,9603	16,462
-5,3425	-13,434	25,396
5,5741	0,95692	26,389
7,5589	-5,4942	27,878
6,5665	-6,9829	19,936
6,5665	-5,4942	19,44
0,612	-5,4942	7,5277
4,5817	-4,9979	11,498
4,5817	-4,0055	2,5642
12,025	-3,5092	9,5131
5,0779	-4,5017	-1,9029
7,0627	-4,5017	3,5569
-10,305	-1,028	-16,297
1,1082	0,46068	-2,3992
-15,267	0,46068	-5,3773
-0,87663	1,9494	2,5642
3,5893	-0,035559	3,5569
6,5665	-0,5318	6,535
-3,3577	1,9494	-4,881
-0,87663	-5,4942	-5,3773
-4,3501	2,4456	-9,8444
3,0931	1,4532	-0,41385
0,11579	-0,5318	-10,341
1,6044	-2,0205	-8,3554
-8,3198	2,9419	-18,282
-7,8236	2,9419	-17,29
-9,3122	2,4456	-13,319
-7,8236	0,46068	-17,29
3,5893	1,4532	-10,341
10,536	2,9419	-1,4065
3,0931	1,9494	3,5569
0,11579	1,9494	11,498
-5,3425	2,4456	4,0533
-3,3577	1,9494	7,5277
-6,3349	1,4532	8,5204
0,11579	5,9193	2,5642
-8,3198	7,9042	-2,3992
-2,8615	4,9268	0,0825
-4,3501	4,4306	2,5642
7,5589	0,46068	17,455
0,612	-5,4942	6,535
3,0931	-9,4641	1,5715
2,5968	-8,4716	-0,41385
3,5893	-6,4866	-4,881
-0,87663	-5,9904	-5,3773
8,0552	-1,028	4,5496
2,5968	-3,5092	12,987
-13,778	-2,0205	-0,91019
1,1082	-2,0205	0,57885
6,0703	-3,013	4,5496
7,0627	-4,0055	5,5423
5,0779	-4,5017	5,5423
-1,3728	-4,0055	-1,4065
1,6044	-4,9979	-3,3919
0,612	-3,013	1,0752
4,5817	-2,5167	4,0533
2,5968	0,46068	4,5496
7,0627	-0,035559	8,5204
-12,289	-0,5318	-12,823
-5,3425	-1,028	-2,8956
-10,801	-4,0055	-9,3481
4,5817	-1,028	14,973
-1,8691	0,46068	9,5131
7,5589	-0,5318	19,44
-5,3425	-0,5318	9,0167
-4,8463	0,95692	9,0167
-13,282	-0,5318	0,57885
-8,3198	2,4456	5,5423
-0,87663	1,9494	2,5642
7,5589	2,4456	5,5423
-16,755	4,4306	-23,246
-4,3501	3,4381	-1,4065
-9,3122	2,9419	-8,3554
-4,3501	4,9268	-2,3992
-3,3577	3,9343	-12,823
16,491	2,4456	11,995
4,5817	1,4532	-11,83
6,0703	3,9343	12,491
-1,8691	3,9343	-8,3554
2,5968	4,4306	-0,41385
-5,3425	-0,035559	-2,3992
11,032	-4,9979	3,5569
-8,3198	-1,5243	-11,333
2,1006	1,9494	10,009
-4,3501	-1,028	6,535
3,5893	-2,0205	13,484
-3,8539	-4,0055	0,57885
-2,8615	-2,0205	-12,326
9,5438	-3,013	3,5569
-4,8463	-3,5092	-12,326
1,6044	-3,5092	-4,881
-4,3501	-3,5092	-24,735
1,1082	-2,0205	1,0752
3,0931	-4,5017	11,498
-1,8691	-5,4942	0,0825
-18,244	-3,013	-11,333
-4,8463	-2,0205	-0,41385
0,612	-2,5167	5,5423
-7,3274	-4,5017	-3,3919
7,5589	-1,5243	14,973
0,612	-4,9979	5,046
12,521	-4,9979	15,469
1,6044	0,46068	2,0679
21,949	-2,5167	27,382
-2,8615	-2,0205	-2,8956
-5,8387	-2,5167	-8,3554
-12,289	-3,5092	-8,3554
3,0931	-1,028	1,0752
9,5438	-1,028	18,447
27,407	-0,035559	37,308
-3,3577	0,46068	9,0167
17,483	-1,5243	40,783
-3,3577	-0,035559	3,0606
2,5968	-0,035559	13,98
2,1006	-1,5243	2,5642
17,483	-1,5243	36,316
0,612	2,4456	3,0606
4,0855	2,4456	9,5131
-18,244	7,9042	-3,8883
-5,3425	4,4306	7,5277
-4,3501	5,4231	5,5423
-0,38042	-2,0205	11,002
1,1082	-7,9754	4,5496
8,5514	-10,457	20,433
-4,3501	-6,4866	8,024
2,5968	-7,4791	18,447
-8,816	-6,4866	8,5204
-10,801	-3,5092	3,5569
-3,3577	-4,0055	11,498
6,0703	-1,5243	21,425
-4,8463	-2,0205	8,5204
4,5817	1,9494	12,491
-5,3425	-0,5318	-2,3992
-3,8539	-1,5243	2,5642
-6,8312	-1,028	-8,3554
-14,274	-0,5318	-28,209
-5,3425	-3,5092	-14,312
-13,778	-2,5167	-30,195
-5,8387	-0,035559	-16,297
4,0855	-3,013	9,0167
5,5741	-3,013	-1,9029
12,025	-6,9829	7,5277
2,5968	2,4456	-4,881
2,1006	2,9419	3,5569
-1,8691	-0,035559	3,0606
-6,8312	-2,0205	1,0752
-17,252	-0,035559	-3,8883
-3,8539	-0,035559	1,0752
-11,297	-2,0205	-9,3481
1,1082	-4,5017	4,5496
-8,3198	-4,0055	-6,37
-5,3425	-3,013	7,5277
0,11579	-3,013	30,36
3,5893	0,46068	12,491
-6,8312	2,9419	8,024
-13,282	1,4532	12,987
-21,717	0,46068	4,5496
-20,229	-1,028	10,506
-24,695	-0,035559	4,0533
-18,74	-2,0205	13,484
-16,259	-0,5318	8,5204
-13,778	-4,5017	13,484
-30,153	-8,4716	5,5423
-12,289	-7,9754	10,506
-33,13	-11,449	-16,793
-28,664	-9,9603	-6,8663
-30,649	-7,4791	-10,837
-22,214	-7,9754	-11,333
-19,733	-7,4791	-5,8737
-23,702	-10,457	-5,3773
-30,153	-9,4641	-6,37
-34,123	-10,953	-4,3846
-47,024	-11,449	-13,815
-34,123	-8,4716	-2,8956
-30,153	-5,9904	5,5423
-32,634	-8,9678	-8,3554
-37,1	-6,9829	9,5131
-36,108	-8,4716	-5,3773
-51,49	-7,4791	-30,691
-44,543	-9,4641	-14,312
-30,649	-7,9754	-9,8444
-32,634	-8,9678	-10,341
-23,702	-8,4716	4,5496
-40,573	-1,028	-15,304
-38,092	9,8892	-6,8663
-41,566	-1,028	-12,823
-20,229	-0,035559	7,5277
-31,642	-0,035559	-10,341
-45,039	0,46068	-22,749
-38,589	0,46068	-13,319
-32,634	0,95692	-3,8883
-34,123	2,4456	-7,859
-44,047	4,4306	-14,808
-24,695	1,9494	-9,3481
-30,649	2,4456	-16,793
-20,725	8,4005	-13,815
-22,214	5,4231	-12,326
-25,191	6,9118	-21,26
-39,085	6,4155	-42,107
-20,725	2,9419	-21,26
-20,229	2,4456	-29,202
-6,3349	2,4456	-18,779
-5,3425	-4,9979	-10,341
-5,3425	-7,4791	-12,326
-10,305	-7,4791	-14,312
-3,8539	-4,9979	-12,823
1,1082	-1,028	-10,341
16,491	-1,5243	9,0167
7,0627	-2,5167	-1,4065
13,017	-1,028	6,535
-0,38042	-0,5318	-8,8517
13,513	-2,0205	5,5423
-6,8312	-0,5318	-5,3773
23,934	-0,035559	23,411
10,536	-0,035559	4,0533
27,904	-0,035559	27,382
9,5438	-1,5243	3,0606
33,362	1,4532	30,36
7,5589	2,4456	9,5131
35,843	2,9419	42,768
28,4	1,4532	24,403
21,949	6,4155	10,506
8,5514	1,4532	-0,41385
23,934	6,4155	22,418
21,453	5,9193	9,0167
33,858	5,4231	25,396
33,858	5,9193	6,535
44,775	14,355	25,892
31,873	8,4005	1,5715
40,309	10,385	13,98
38,82	9,393	1,0752
28,4	11,874	-8,8517
30,881	9,393	-5,3773
32,369	11,874	0,57885
39,316	8,8967	-8,3554
33,362	10,882	-33,173
36,835	4,9268	-29,698
27,407	4,4306	-28,706
31,377	7,9042	4,0533
33,858	3,4381	-0,41385
23,934	4,4306	1,5715
30,881	4,9268	-7,3627
17,483	-2,0205	-12,823
30,881	-4,5017	-7,3627
2,5968	-4,5017	-15,304
32,369	-6,4866	22,418
1,6044	-3,5092	-10,341
38,82	-4,5017	15,966
14,01	-5,4942	-19,275
32,369	-5,4942	10,506
7,5589	-4,9979	-1,9029
30,385	-7,9754	36,316
3,0931	-7,9754	-7,859
37,828	-4,5017	41,279
13,017	-3,013	13,484
24,926	-4,9979	34,33
-0,38042	-2,5167	4,5496
22,445	-2,0205	31,352
-0,38042	-1,028	9,5131
31,377	-4,5017	42,272
10,536	-3,5092	8,024
34,354	-4,0055	37,805
6,0703	-4,9979	4,5496
25,919	5,9193	35,323
-2,8615	1,9494	7,5277
19,468	-1,028	36,812
1,1082	1,4532	-2,3992
15,498	-1,028	25,396
-4,3501	2,4456	-6,37
-1,8691	-2,0205	11,002
-5,3425	-0,5318	-1,4065
0,11579	0,95692	21,425
4,0855	0,46068	-1,4065
-2,8615	3,4381	7,0313
-0,87663	6,4155	3,0606
-8,3198	4,4306	-0,91019
0,11579	4,9268	0,0825
-13,778	2,4456	-9,3481
-7,8236	0,95692	-9,3481
-12,289	0,46068	-36,151
-4,3501	0,95692	-6,37
-11,297	5,9193	-21,26
1,6044	0,95692	-1,4065
-9,8084	-7,9754	-23,246
5,5741	-5,4942	2,5642
0,612	-9,9603	-16,297
-0,87663	-4,9979	3,0606
3,5893	-2,0205	3,5569
-0,87663	-2,0205	5,046
-2,3653	0,46068	3,5569
-13,282	2,4456	-0,41385
-7,3274	1,4532	-0,41385
-14,771	-0,035559	-21,757
7,5589	-2,0205	1,5715
-7,3274	-1,028	-24,238
4,5817	-0,035559	-3,3919
2,1006	0,46068	10,506
-1,8691	-3,5092	3,0606
-1,3728	-3,013	-9,3481
4,5817	-1,028	-5,3773
4,5817	-2,5167	3,0606
-4,3501	-1,028	-8,3554
-5,3425	-2,5167	-2,3992
0,11579	-3,013	-1,9029
-0,38042	3,9343	-7,3627
13,513	11,378	14,477
8,0552	2,9419	4,5496
1,6044	-3,013	-2,3992
-7,8236	0,46068	-2,8956
5,0779	1,9494	4,5496
2,5968	2,9419	1,5715
-6,3349	1,4532	7,0313
-3,3577	0,46068	7,5277
1,6044	2,9419	10,506
-5,3425	-0,035559	6,0387
2,5968	2,9419	13,484
-3,3577	3,4381	-8,8517
7,5589	3,9343	15,469
4,5817	3,9343	10,506
13,017	0,95692	12,987
-0,87663	3,4381	-0,91019
15,002	2,4456	10,009
-21,221	2,9419	-22,253
6,5665	-3,5092	3,5569
-11,297	-5,4942	-9,8444
13,513	-10,457	0,0825
-3,8539	-5,4942	-13,815
17,483	-5,4942	20,433
4,0855	-5,4942	6,0387
15,995	-3,5092	12,987
14,01	-2,0205	15,469
13,513	-4,0055	22,914
-1,3728	-2,0205	-5,8737
14,01	-4,0055	8,5204
17,979	-5,4942	17,455
14,01	-7,4791	20,433
-11,297	-4,0055	-8,3554
11,032	0,46068	16,958
8,5514	-4,5017	11,995
16,491	-3,013	23,411
-8,3198	-2,5167	-15,304
15,498	-3,5092	24,403
14,01	-4,0055	23,411
19,468	-8,9678	31,352
-2,8615	-0,5318	5,5423
25,423	-0,5318	38,301
0,612	-1,028	-3,8883
19,964	-1,028	31,352
-3,3577	4,4306	6,535
-6,3349	0,46068	3,5569
-6,8312	0,46068	-8,3554
0,11579	0,95692	10,009
-13,778	0,95692	-30,691
3,0931	4,4306	13,484
-14,274	4,9268	-20,268
-4,8463	3,4381	-1,4065
-3,8539	4,4306	-7,859
-15,267	4,9268	-16,793
-12,786	3,9343	-25,728
-12,289	6,9118	-17,29
-13,778	4,9268	-26,224
-17,748	3,9343	-22,253
-10,305	2,4456	-5,3773
-23,206	-2,0205	-23,246
-8,3198	-6,4866	-4,3846
-11,793	-10,953	-20,268
0,612	-11,449	-3,8883
-3,3577	-8,9678	-16,793
5,0779	3,4381	8,5204
-1,8691	-4,5017	-7,3627
-10,305	-2,0205	-8,3554
7,0627	-5,4942	-5,3773
2,1006	-3,013	-9,3481
3,5893	-2,5167	-3,8883
-1,8691	-4,0055	5,5423
-4,3501	-4,9979	-6,37
-14,771	-5,9904	-9,3481
-14,274	-5,9904	-4,3846
7,5589	-3,5092	19,44
3,0931	-3,5092	10,506
-6,8312	-3,013	-2,8956
0,612	-3,5092	3,5569
-7,8236	-3,5092	-4,3846
2,5968	-7,9754	7,5277
-7,3274	-2,0205	-6,37
3,0931	0,95692	8,5204
-3,3577	1,4532	8,5204
-7,3274	1,9494	2,5642
-11,793	2,9419	-0,91019
-9,3122	1,9494	8,5204
-15,267	2,9419	8,5204
9,0476	2,4456	20,433
3,0931	3,4381	9,5131
7,0627	2,9419	12,491
-1,3728	0,46068	6,535
6,0703	1,9494	15,469
-10,305	1,9494	1,5715
3,5893	-2,0205	11,498
-4,3501	-2,0205	-0,41385
-4,3501	-1,5243	2,5642
-2,8615	1,4532	2,5642
-0,87663	3,4381	6,535
4,5817	5,9193	15,469
2,5968	5,9193	14,973
8,5514	1,9494	6,535
8,5514	-5,4942	15,469
-3,3577	-7,4791	-2,3992
2,5968	-7,9754	7,5277
-2,8615	-5,9904	-2,8956
-3,8539	-5,9904	-0,91019
-14,771	-6,9829	-10,341
1,1082	-5,9904	-7,859
4,0855	-1,5243	-8,3554
8,5514	-3,013	0,57885
4,0855	-0,5318	-3,3919
7,5589	-2,5167	3,5569
-6,8312	-2,0205	-7,3627
9,0476	-0,5318	5,046
-10,801	-0,035559	-18,282
0,612	-1,5243	-6,8663
-8,816	-1,5243	-10,837
-6,3349	-1,028	1,0752
-5,8387	-0,5318	2,0679
0,612	-1,028	10,009
5,0779	-4,5017	4,5496
6,5665	0,46068	8,5204
-10,305	0,46068	-20,764
2,1006	2,4456	7,0313
-2,3653	0,46068	-5,3773
0,11579	2,9419	2,0679
-3,8539	3,9343	-8,3554
-1,3728	0,46068	-12,326
-3,8539	-1,5243	-16,793
0,11579	1,9494	-13,319
-1,8691	-3,013	-12,326
4,5817	-0,5318	-1,9029
-2,8615	-1,028	5,046
5,5741	-1,5243	12,987
11,529	1,4532	21,922
6,0703	-1,028	23,411
-8,816	0,46068	13,484
-8,3198	0,46068	12,987
-14,274	-0,5318	10,009
-13,282	-0,5318	16,958
-3,3577	-5,9904	12,987
0,11579	-9,4641	16,958
2,1006	-4,9979	14,973
3,0931	-4,9979	17,455
7,5589	-4,9979	15,469
-2,8615	-4,9979	7,5277
13,017	-7,9754	17,951
4,0855	-8,4716	-1,9029
-1,8691	-9,9603	-6,37
-1,8691	-11,449	-0,41385
-2,8615	2,4456	0,57885
-4,3501	-4,9979	1,5715
-9,8084	-6,4866	-7,859
4,0855	-5,9904	-2,3992
-0,38042	-6,4866	-10,341
2,5968	-5,4942	-4,3846
-7,3274	-3,5092	-12,326
2,1006	-7,4791	-5,8737
-5,3425	-4,9979	-12,326
4,0855	-2,0205	-5,8737
-0,87663	-5,4942	-18,779
5,0779	-1,5243	-9,8444
-23,206	1,4532	-47,567
-3,8539	-2,0205	-8,3554
-6,3349	-4,0055	-7,3627
-2,8615	-1,5243	2,0679
-12,786	-0,5318	-12,326
9,5438	2,4456	13,484
9,5438	-0,035559	18,944
-0,87663	-0,035559	14,477
-11,297	-1,5243	4,5496
-5,8387	-0,035559	8,5204
-14,771	1,9494	3,5569
-4,3501	2,4456	3,0606
-11,793	2,4456	-8,3554
-3,8539	1,9494	-0,41385
8,5514	1,9494	12,491
8,5514	3,9343	14,973
-3,8539	4,9268	-1,4065
6,0703	3,4381	11,498
-2,8615	2,9419	1,0752
5,5741	-2,0205	6,535
3,0931	-5,9904	-0,91019
4,0855	-5,9904	-0,91019
-4,3501	0,95692	-5,8737
-8,816	1,4532	-6,37
-2,8615	-1,5243	-6,37
0,612	-0,035559	-6,37
-16,259	2,4456	-16,297
2,5968	-2,5167	1,0752
0,11579	-0,035559	-4,881
1,1082	-1,5243	3,5569
-6,3349	-3,013	-8,8517
8,5514	2,9419	5,5423
1,6044	1,9494	-2,3992
-0,38042	1,9494	0,57885
-11,793	0,95692	-2,3992
-10,305	-0,035559	-0,41385
4,0855	-2,5167	41,279
1,1082	-2,0205	8,5204
-0,38042	-4,0055	9,0167
6,5665	2,4456	19,44
-2,3653	5,4231	9,0167
2,5968	3,9343	19,44
-8,816	1,9494	7,5277
-5,8387	-1,028	13,98
-9,8084	1,4532	-2,3992
5,0779	0,46068	11,002
-10,801	1,4532	-8,3554
-1,3728	10,385	-2,3992
-4,3501	4,4306	4,5496
0,612	4,9268	12,491
20,46	3,9343	23,411
5,5741	3,9343	11,002
14,01	2,4456	25,396
-3,8539	1,9494	6,535
-4,3501	2,9419	0,57885
-0,38042	2,9419	9,5131
-11,793	7,9042	1,5715
2,5968	7,408	7,5277
-0,38042	6,4155	0,0825
3,5893	-0,035559	2,0679
-0,38042	-5,4942	-3,3919
3,5893	-7,4791	-5,3773
1,1082	-4,5017	-9,3481
8,5514	-7,4791	-4,3846
1,6044	-0,035559	-4,3846
7,0627	-3,5092	3,0606
7,5589	-1,5243	-1,4065
4,5817	0,46068	-3,3919
-5,3425	-3,5092	-12,326
-5,8387	-2,5167	-4,881
-0,38042	0,46068	-8,3554
6,0703	-3,5092	-2,3992
-2,3653	-4,0055	-10,341
-2,8615	-1,5243	-5,8737
-5,3425	-3,5092	-14,312
-3,3577	-3,013	-8,8517
-7,3274	-4,0055	-13,815
4,5817	-2,0205	-7,3627
3,0931	-1,5243	-6,8663
6,0703	-4,9979	1,5715
-3,8539	3,4381	1,5715
5,0779	8,4005	17,951
-5,3425	5,4231	11,498
4,5817	4,4306	17,455
-9,8084	3,4381	-3,3919
2,5968	2,4456	11,498
-10,305	1,9494	-1,9029
-2,3653	-0,5318	4,5496
-12,786	2,4456	-0,91019
-7,3274	6,9118	6,535
-0,87663	5,4231	7,5277
3,0931	4,4306	14,477
-2,3653	3,4381	7,0313
-3,3577	2,9419	10,506
-7,8236	2,4456	8,5204
-3,8539	3,4381	18,447
-0,38042	0,46068	11,498
3,0931	0,46068	16,958
-6,3349	2,9419	9,5131
-6,8312	-2,5167	11,002
-10,801	-7,4791	2,5642
0,11579	-7,9754	12,987
-9,8084	-5,9904	3,5569
3,5893	-6,4866	3,0606
-2,3653	-7,9754	3,0606
-3,3577	-8,4716	6,535
-4,3501	-1,5243	1,0752
1,1082	-5,4942	4,0533
-8,3198	-4,9979	-4,881
-6,8312	-4,0055	-14,808
-15,267	-2,0205	-21,757
-1,8691	-2,0205	-2,3992
-0,87663	-4,9979	-2,3992
1,6044	-3,5092	6,535
-3,3577	-2,5167	1,5715
0,11579	0,46068	14,477
-1,3728	-1,5243	3,5569
2,5968	-3,013	8,5204
-16,755	-1,028	-17,29
0,11579	-4,0055	-0,91019
0,612	-2,5167	-2,3992
-9,8084	1,9494	-10,837
-13,282	-0,035559	-16,793
3,5893	0,46068	1,0752
-7,8236	2,4456	-0,91019
9,5438	0,46068	2,5642
1,6044	0,46068	8,5204
5,0779	0,46068	11,498
4,5817	-2,0205	9,0167
7,0627	-0,5318	9,5131
2,1006	0,46068	2,5642
4,0855	-2,0205	8,5204
-0,38042	2,4456	7,0313
0,11579	3,4381	4,5496
-7,8236	1,9494	-1,9029
-7,8236	2,9419	-0,41385
-6,8312	-2,0205	-2,3992
1,6044	0,46068	7,5277
-2,8615	2,4456	-1,4065
0,11579	-6,4866	3,5569
11,032	-7,4791	2,0679
10,536	-9,9603	6,535
6,0703	-8,4716	3,5569
6,5665	-5,4942	7,5277
-19,236	-3,013	-20,268
-4,8463	-5,4942	3,5569
-3,8539	-6,9829	4,5496
-5,3425	-6,9829	3,5569
-6,3349	-0,5318	5,5423
10,04	-5,9904	8,024
3,5893	-4,0055	0,57885
7,0627	-4,5017	3,5569
-2,8615	-4,5017	-4,3846
3,0931	-2,0205	3,5569
-4,3501	-3,013	-3,3919
1,6044	-3,5092	5,046
3,0931	-2,5167	-0,91019
3,5893	-0,035559	5,5423
-2,8615	0,95692	3,5569
-3,8539	-4,5017	6,535
-8,816	0,46068	1,0752
-1,3728	2,4456	11,498
11,529	-1,5243	5,046
4,5817	2,9419	14,477
0,612	0,46068	13,484
2,5968	3,4381	15,469
-3,8539	2,9419	6,535
2,5968	3,4381	13,484
-14,274	3,9343	-7,3627
1,1082	4,9268	5,5423
-2,3653	2,4456	-1,4065
0,11579	3,9343	-0,41385
10,04	-0,5318	10,506
-0,87663	0,46068	3,5569
-1,8691	3,9343	5,5423
8,5514	1,9494	6,535
1,1082	4,4306	-1,9029
4,0855	4,4306	4,5496
-10,801	4,9268	-10,837
-8,3198	1,9494	-7,859
-10,305	-2,5167	-8,3554
-8,3198	-7,4791	-9,3481
6,0703	-5,9904	-8,3554
10,536	-5,4942	-4,881
3,5893	-4,0055	-12,823
2,5968	-4,0055	-6,37
-3,8539	-1,5243	-14,312
-1,3728	-2,0205	-7,859
-5,3425	-1,028	-8,3554
-0,87663	-1,5243	-4,3846
-1,8691	-1,5243	-5,3773
-1,8691	-0,5318	-2,3992
-7,8236	0,95692	-6,8663
-0,38042	-0,5318	1,0752
0,612	-0,035559	-1,9029
10,536	-0,035559	5,046
7,5589	1,9494	1,0752
7,5589	0,95692	7,0313
-18,74	-0,035559	-21,757
5,5741	-1,5243	11,498
-7,8236	-3,013	-4,3846
-7,8236	1,9494	-1,9029
-2,3653	2,9419	-4,3846
2,1006	2,4456	-4,881
2,1006	3,4381	2,5642
4,5817	5,4231	11,002
-5,3425	5,9193	-1,9029
3,0931	10,385	15,469
5,0779	4,4306	5,5423
11,529	4,4306	8,024
-6,8312	2,4456	-9,8444
-6,3349	4,9268	-4,3846
-4,8463	3,9343	-10,837
-1,3728	3,9343	-4,3846
1,1082	4,4306	4,0533
8,5514	3,4381	3,5569
5,5741	4,4306	-2,8956
7,5589	5,4231	-3,8883
-3,3577	3,4381	-13,319
4,5817	3,9343	-5,3773
-7,3274	0,46068	-3,8883
-4,8463	-6,9829	1,0752
-2,8615	-8,9678	-6,37
4,0855	-7,4791	1,5715
2,5968	-1,5243	-4,881
3,0931	-4,5017	1,0752
-1,3728	-5,9904	-2,3992
2,5968	-4,5017	3,0606
3,5893	-4,0055	-2,8956
4,5817	-4,9979	2,0679
3,5893	-3,5092	4,0533
-0,38042	-8,4716	1,5715
-4,3501	-1,028	-6,37
-4,8463	-2,0205	-6,37
-8,3198	-4,0055	-9,3481
4,5817	-3,013	3,5569
5,5741	-5,4942	7,5277
9,0476	-2,0205	10,506
2,5968	-3,013	1,0752
3,5893	-4,0055	3,5569
-0,87663	-8,9678	-4,881
10,536	-3,013	6,535
-4,8463	3,4381	-6,8663
4,5817	2,9419	-2,3992
-2,8615	1,9494	-0,91019
-3,8539	2,9419	1,5715
-0,38042	1,4532	7,5277
3,5893	2,9419	14,973
4,5817	2,4456	11,002
11,032	6,9118	19,44
3,5893	4,4306	7,5277
6,5665	1,9494	23,411
0,612	1,9494	15,469
-1,8691	-0,035559	9,0167
-4,3501	0,46068	9,0167
2,5968	-0,035559	11,498
3,0931	-0,035559	16,462
-0,87663	-0,035559	9,5131
5,5741	2,9419	15,469
6,5665	2,9419	15,469
0,612	-2,0205	8,024
14,01	-8,4716	15,469
8,5514	-10,953	5,5423
12,521	-10,953	7,0313
-9,3122	-6,9829	-14,312
-0,87663	-6,4866	-6,37
-0,87663	-2,0205	-9,8444
0,11579	-4,0055	3,5569
12,521	-2,5167	6,0387
14,506	-1,028	4,0533
7,0627	-2,5167	-2,8956
5,0779	-2,0205	-6,8663
-1,8691	-4,0055	-15,304
6,5665	-3,5092	-6,8663
5,0779	-2,0205	-19,275
3,0931	0,95692	-14,808
1,6044	0,95692	-14,312
1,1082	1,4532	-14,312
5,0779	1,4532	-10,341
6,5665	-0,5318	-5,3773
-0,87663	-5,4942	-9,3481
9,5438	-1,5243	-9,8444
8,0552	-0,035559	0,57885
11,032	0,46068	1,5715
4,5817	-0,035559	1,0752
-1,3728	-0,035559	-5,3773
-9,3122	2,9419	-14,312
-4,3501	2,4456	-4,3846
-3,8539	2,4456	-2,8956
1,6044	2,4456	6,535
2,5968	1,4532	6,535
3,5893	0,95692	8,024
2,5968	3,4381	3,5569
1,1082	2,9419	8,5204
-0,87663	3,4381	6,0387
8,5514	3,4381	11,002
10,04	3,9343	7,0313
-9,8084	2,4456	-5,3773
-12,289	0,95692	-2,3992
-4,8463	-1,028	7,5277
-1,3728	2,9419	11,498
6,5665	-5,9904	14,973
2,5968	-8,4716	9,5131
10,04	-7,9754	16,462
-2,8615	-5,4942	3,5569
2,1006	-5,4942	5,5423
-9,8084	-4,9979	-0,41385
-8,3198	-4,9979	-0,41385
3,5893	-5,9904	13,484
-3,8539	-0,035559	0,57885
-1,3728	-1,5243	-0,41385
0,11579	-2,0205	4,5496
-3,8539	-1,028	-3,3919
-4,3501	-1,5243	2,5642
0,11579	-3,013	-5,3773
3,5893	-3,013	1,5715
4,0855	-3,5092	-4,881
13,513	1,9494	7,0313
3,5893	-1,5243	-2,8956
7,5589	-1,5243	1,5715
-0,87663	-1,5243	-4,3846
4,0855	-4,5017	-7,3627
7,0627	0,46068	-1,4065
11,032	0,95692	0,57885
7,0627	1,4532	2,0679
8,5514	-4,0055	0,57885
3,5893	2,9419	-0,91019
15,002	1,9494	3,5569
11,032	0,46068	-6,37
6,0703	0,46068	5,5423
-6,3349	-0,035559	1,0752
0,612	2,4456	4,5496
4,5817	3,9343	11,002
1,6044	1,9494	14,973
6,5665	6,4155	13,484
7,5589	3,9343	16,958
-3,3577	3,9343	10,506
0,11579	0,46068	19,44
-7,8236	2,4456	11,498
-11,793	0,95692	5,046
-8,816	0,46068	-2,8956
-10,801	-3,013	-2,8956
-4,8463	-9,4641	2,5642
-0,38042	-7,4791	5,5423
-8,3198	-4,9979	4,5496
-3,8539	-3,013	11,002
-8,816	-3,5092	0,57885
4,0855	-5,9904	2,5642
0,612	-3,013	-7,3627
-3,8539	-4,0055	-16,297
-2,8615	-3,5092	-13,319
4,5817	-2,0205	-9,3481
0,11579	-1,028	-17,29
2,1006	-0,5318	-12,326
10,536	-3,013	-12,326
14,506	0,46068	-4,3846
9,5438	-1,5243	-7,3627
6,5665	-0,5318	-8,3554
-1,3728	-1,028	-14,312
2,1006	-0,035559	-12,326
3,0931	0,46068	-10,341
2,5968	-6,4866	-11,83
-0,87663	-2,0205	-12,326
-2,3653	-1,5243	-9,3481
2,5968	-3,013	-6,37
3,0931	-2,5167	-0,41385
-6,3349	-1,5243	-7,3627
11,529	7,9042	11,498
1,6044	3,9343	0,0825
4,5817	3,9343	7,5277
-15,267	2,4456	-18,282
-1,8691	0,46068	3,5569
-16,259	0,95692	-10,837
-0,87663	-0,035559	-0,91019
-3,8539	-0,035559	-3,3919
1,1082	2,4456	5,5423
5,5741	2,9419	13,98
4,0855	3,9343	10,506
0,11579	3,4381	4,5496
0,11579	0,95692	7,0313
6,0703	-1,5243	1,5715
7,5589	-4,9979	6,0387
-7,3274	-9,9603	-9,3481
-6,3349	-12,441	-2,3992
-4,8463	-5,4942	4,5496
-6,3349	-4,0055	7,5277
-1,8691	-5,4942	14,477
8,0552	-6,9829	18,944
3,5893	-6,4866	13,98
5,5741	-3,013	15,469
-1,8691	-5,4942	7,5277
-0,38042	-5,4942	17,455
-6,3349	-0,5318	10,506
8,0552	-4,0055	18,447
-0,87663	-0,035559	4,5496
-3,8539	-0,035559	2,5642
-30,153	0,46068	-26,224
-5,3425	-1,028	-5,3773
-0,87663	-3,013	-0,41385
0,612	-3,013	-0,91019
6,5665	-2,0205	-2,3992
10,04	-2,0205	0,57885
5,0779	-2,0205	-1,9029
3,0931	3,4381	-2,3992
-10,305	4,9268	-24,735
-4,8463	3,9343	-12,326
-6,3349	2,4456	-16,793
0,11579	2,4456	-1,4065
-2,3653	0,95692	-4,881
6,5665	3,9343	5,5423
1,6044	2,4456	2,5642
2,5968	2,4456	5,046
-8,3198	3,9343	-2,3992
1,6044	3,9343	0,0825
10,536	2,9419	-1,9029
1,1082	1,9494	2,5642
-10,801	4,4306	-2,3992
-5,8387	7,9042	3,5569
-11,297	6,4155	3,0606
-8,3198	3,9343	3,0606
-11,297	2,4456	-7,3627
-4,8463	1,9494	-1,9029
15,002	-3,013	28,374
-4,3501	-7,4791	11,498
14,01	-7,9754	30,36
-4,3501	-7,9754	6,535
4,0855	-4,5017	4,5496
2,5968	-5,4942	5,046
15,498	-8,9678	23,411
-4,3501	-3,5092	2,5642
-13,778	-2,0205	-12,823
-10,801	-3,5092	-5,3773
-7,8236	-4,0055	-3,3919
9,0476	-3,013	2,5642
1,6044	-5,4942	-6,37
8,5514	-2,0205	0,57885
4,0855	-0,035559	-2,3992
4,0855	0,95692	-1,4065
-2,8615	-1,028	-3,3919
6,0703	-2,0205	-3,3919
-6,8312	-1,5243	-15,304
-2,3653	-2,0205	-4,881
-4,8463	-4,9979	-6,8663
-9,8084	-3,013	-12,326
-7,8236	3,9343	-6,8663
-4,3501	-1,5243	-3,3919
2,5968	-2,0205	0,0825
6,0703	-0,5318	6,535
0,612	2,4456	3,0606
0,612	-0,035559	6,535
-4,8463	0,46068	-4,3846
0,612	1,9494	-0,41385
-11,297	1,9494	-16,297
-1,3728	3,4381	0,57885
-7,3274	1,9494	-11,333
-0,38042	0,46068	1,5715
-0,87663	0,46068	-3,3919
1,1082	1,9494	10,009
-7,3274	2,4456	3,0606
9,0476	3,4381	8,5204
0,11579	1,9494	3,5569
1,1082	-0,5318	4,5496
-7,3274	4,4306	-3,3919
-5,3425	-4,0055	1,5715
-10,305	-7,9754	-4,3846
-9,8084	-9,4641	-0,91019
3,5893	-4,9979	1,0752
8,5514	-3,5092	6,0387
2,5968	-5,4942	2,0679
0,11579	-7,9754	5,5423
1,1082	5,9193	7,5277
-0,87663	-2,0205	8,5204
0,612	-2,0205	2,5642
1,1082	-2,5167	7,5277
-2,8615	-4,0055	-2,3992
-4,3501	-6,4866	6,0387
-15,267	-4,5017	-16,297
-0,87663	-5,9904	1,5715
-9,8084	-4,5017	-1,4065
5,5741	-0,035559	9,0167
4,0855	-1,5243	11,002
3,5893	-2,0205	6,0387
-6,3349	-4,5017	-0,41385
1,6044	-7,9754	11,498
-4,8463	-3,013	18,447
2,1006	-2,5167	28,374
-4,3501	-3,5092	9,0167
-1,8691	-4,0055	15,469
0,11579	1,9494	16,462
-4,8463	1,4532	14,477
-4,8463	0,46068	12,491
-0,38042	-0,035559	13,98
4,0855	-0,5318	5,5423
6,5665	-1,5243	2,5642
0,11579	1,4532	1,5715
4,0855	-1,028	-5,3773
6,5665	7,9042	-4,3846
3,5893	2,4456	-5,3773
-8,816	3,4381	-21,757
3,0931	-1,5243	-18,282
-4,8463	-0,035559	-16,297
-4,3501	-0,035559	-10,341
-10,801	-0,035559	-17,786
0,612	-2,5167	-6,37
-0,87663	-7,4791	-8,8517
9,0476	-8,4716	-7,3627
7,5589	-4,5017	-4,881
8,0552	-3,5092	-7,3627
9,5438	-5,9904	-0,41385
-0,38042	-4,5017	-11,333
6,5665	-6,4866	-4,881
-5,8387	-6,9829	-14,312
-3,8539	-5,9904	-13,815
-5,8387	-5,4942	-14,312
-1,3728	-2,0205	-10,341
4,0855	-1,028	-0,91019
3,0931	-1,5243	5,046
-1,8691	-0,5318	8,5204
-7,8236	-0,035559	5,046
4,0855	-3,5092	16,462
-10,305	-2,0205	10,009
-7,8236	-3,5092	5,5423
-3,3577	-1,028	18,447
-7,3274	-1,5243	5,046
-12,289	0,95692	3,0606
2,5968	3,9343	13,98
-10,801	2,9419	1,0752
2,1006	0,46068	16,958
0,11579	-0,035559	13,484
0,612	1,4532	14,477
4,5817	10,882	14,973
-0,87663	4,4306	16,958
5,0779	6,4155	13,98
0,11579	6,4155	3,0606
-1,8691	4,9268	1,5715
-5,3425	6,4155	-0,41385
-6,3349	5,4231	-3,3919
1,6044	4,9268	7,0313
3,5893	3,9343	-0,41385
6,0703	6,4155	-1,4065
-11,297	5,9193	-13,815
-0,87663	3,9343	-9,3481
-3,3577	2,4456	-12,326
-4,8463	4,9268	-11,83
-15,763	2,4456	-16,793
4,5817	-3,013	-5,3773
-12,786	-4,5017	-14,312
-2,8615	-0,035559	1,5715
-7,3274	-0,5318	-0,91019
2,5968	0,46068	9,5131
16,491	-1,5243	31,849
3,0931	0,46068	8,024
-2,8615	-1,028	-3,3919
-3,8539	-2,0205	-3,3919
16,987	-5,4942	22,418
10,536	0,95692	8,5204
-8,816	-0,5318	-14,312
-7,3274	-2,0205	-9,8444
0,612	-2,0205	-8,3554
-1,8691	-0,5318	-13,319
3,0931	-1,5243	-1,9029
4,0855	-3,5092	1,0752
9,5438	-4,0055	2,5642
-3,3577	-7,9754	3,0606
-1,3728	-5,9904	13,98
8,0552	-0,5318	9,5131
-7,8236	0,46068	-6,37
-0,38042	-0,5318	7,5277
-2,3653	-0,5318	1,0752
-9,8084	0,46068	-0,91019
-12,289	2,9419	-0,91019
6,0703	0,95692	1,0752
13,513	3,9343	1,0752
3,5893	1,4532	0,57885
-17,748	3,4381	-21,26
-1,8691	-0,035559	-9,3481
-14,274	0,95692	-31,187
-5,8387	0,46068	-8,3554
-2,3653	0,95692	-8,3554
1,6044	-0,5318	-4,3846
-24,199	0,46068	-37,143
-5,8387	0,46068	-6,37
-9,3122	3,4381	-10,341
2,5968	1,4532	3,5569
3,5893	-4,5017	-0,91019
8,5514	-7,9754	-0,91019
4,5817	-7,9754	-7,859
0,612	-6,9829	-8,3554
-2,8615	-5,4942	-7,859
-0,38042	-4,5017	-2,3992
-2,3653	-5,4942	-7,859
1,1082	-3,013	-4,881
-2,3653	-0,5318	-13,815
3,0931	-2,0205	-5,3773
-2,3653	-1,5243	-3,3919
0,11579	-2,5167	7,0313
-4,3501	-3,013	5,046
-4,3501	-3,5092	4,5496
-13,282	-5,4942	-17,786
-3,8539	-2,0205	-1,4065
-16,755	-1,028	-20,268
0,11579	-4,0055	4,5496
-0,38042	0,46068	6,0387
-1,8691	-1,5243	11,498
-2,3653	-6,9829	3,0606
-3,3577	1,9494	0,0825
1,6044	2,4456	9,5131
0,11579	1,4532	13,484
-17,748	2,9419	-12,326
-10,305	2,4456	8,5204
-13,778	4,9268	3,5569
-3,8539	4,4306	5,046
-0,87663	8,4005	8,024
-3,8539	8,4005	10,506
-4,3501	5,9193	11,498
-0,87663	4,9268	16,462
-2,8615	5,9193	14,477
5,5741	6,4155	16,958
5,0779	8,8967	7,5277
-5,3425	8,8967	4,0533
-0,38042	5,9193	7,5277
-1,8691	7,408	10,506
-19,733	3,9343	-7,859
-7,3274	5,4231	2,0679
-0,38042	8,8967	6,535
-3,3577	1,9494	5,5423
-6,3349	-3,5092	3,5569
-2,8615	-4,0055	3,5569
1,6044	-4,5017	6,535
2,5968	-4,0055	7,5277
-3,3577	-3,5092	-0,91019
1,6044	-5,9904	0,0825
5,0779	-4,0055	-2,3992
8,0552	-1,5243	0,57885
0,11579	-2,5167	-9,3481
0,612	-1,5243	-7,859
-4,3501	-2,0205	-13,319
0,11579	-2,5167	-18,779
2,5968	-3,5092	-13,319
5,0779	-3,013	-12,326
-4,3501	-2,0205	-4,3846
-0,87663	-4,9979	-4,3846
-12,289	-2,0205	-12,823
-8,3198	-0,5318	-11,333
-2,8615	-2,0205	-12,326
-1,3728	-5,4942	-7,3627
-1,8691	-1,5243	-8,3554
-2,3653	0,95692	-1,4065
0,11579	0,46068	1,5715
-0,38042	2,4456	3,5569
6,5665	2,4456	0,57885
-1,3728	2,4456	-8,3554
-13,778	0,95692	-28,209
5,0779	4,4306	-0,91019
2,5968	1,9494	-1,4065
-7,8236	2,9419	-9,3481
-12,786	2,4456	-6,37
-0,38042	2,4456	-2,3992
-5,8387	6,9118	-4,3846
-3,3577	3,9343	1,5715
-1,8691	3,9343	5,046
-0,87663	2,4456	8,5204
-3,8539	2,9419	8,5204
-5,8387	3,9343	3,5569
3,0931	2,4456	7,0313
5,0779	-1,5243	11,498
3,5893	-5,9904	8,5204
0,612	-8,4716	12,491
-3,3577	-7,4791	6,535
-8,816	-5,9904	1,5715
2,1006	-6,4866	2,5642
0,612	-5,9904	13,484
-8,3198	-7,4791	-1,4065
-2,8615	-4,9979	9,0167
-13,778	-4,5017	-6,37
-8,3198	-4,9979	2,5642
-10,305	-4,0055	8,024
-4,3501	-2,5167	5,5423
20,46	-4,9979	33,338
1,1082	-2,5167	4,0533
7,0627	-3,5092	18,447
0,612	-3,5092	-0,91019
-4,3501	-3,5092	-5,8737
-0,87663	-0,5318	-8,3554
1,6044	-1,028	-5,8737
5,5741	-3,5092	-5,8737
0,612	-5,9904	-2,3992
-5,3425	-1,5243	-3,8883
-8,3198	0,46068	-1,4065
-14,771	-1,028	-2,3992
-4,3501	-0,035559	3,0606
-2,3653	1,4532	7,5277
0,612	2,9419	11,995
7,5589	12,867	23,411
-14,274	5,9193	-5,8737
-3,8539	5,9193	10,506
-2,3653	5,4231	10,009
4,0855	5,9193	8,5204
-3,3577	4,9268	-0,41385
3,5893	2,9419	6,535
0,612	1,4532	-0,41385
-1,3728	1,4532	-4,3846
-3,3577	3,4381	5,5423
5,0779	14,355	15,966
5,0779	8,4005	7,5277
6,0703	7,9042	8,5204
-0,38042	1,9494	6,0387
-4,8463	-5,9904	-4,3846
-0,87663	-9,4641	-0,91019
-3,3577	-6,4866	-2,3992
5,0779	-8,4716	-6,37
5,5741	-9,4641	-4,881
0,612	-7,4791	-12,326
6,0703	-3,013	-8,3554
-0,38042	-4,9979	-12,326
-0,87663	-5,9904	-12,326
-2,8615	-6,4866	-24,735
-1,3728	-4,5017	-18,282
-5,8387	-3,013	-10,341
-2,3653	-3,5092	-7,3627
-5,8387	-4,0055	-6,8663
-4,3501	-5,4942	-12,326
-12,786	-4,5017	-17,786
0,612	7,9042	-3,8883
-3,8539	0,46068	-8,8517
-1,3728	0,95692	-9,3481
-8,816	-0,5318	-12,326
-0,87663	1,4532	-4,3846
-3,8539	0,95692	-6,37
-0,38042	-1,028	-4,3846
5,0779	-1,5243	-7,3627
-0,38042	-0,035559	-13,319
3,0931	-0,035559	-8,8517
3,0931	-1,028	0,57885
7,5589	1,9494	15,469
3,5893	3,4381	4,5496
10,04	4,4306	3,5569
2,5968	4,4306	-3,3919
7,5589	3,4381	3,0606
-8,3198	1,9494	-5,3773
-3,3577	0,46068	-0,41385
-13,778	1,9494	-9,8444
-14,274	1,4532	-8,3554
-1,8691	-0,5318	0,57885
-8,3198	5,9193	-2,3992
-1,8691	1,4532	7,5277
-3,3577	-3,5092	6,535
-3,8539	-5,9904	0,57885
-6,8312	-10,953	1,5715
-7,8236	-6,9829	0,0825
-4,3501	-5,4942	3,5569
-4,3501	-8,4716	5,5423
-3,3577	-6,4866	3,5569
-14,771	-4,0055	-6,8663
-12,786	-3,5092	-1,4065
-10,305	-2,5167	1,5715
-5,8387	-2,0205	-8,3554
3,5893	-4,0055	6,0387
-0,38042	-4,5017	4,5496
-2,3653	-3,5092	7,5277
3,5893	-3,013	22,418
-11,297	-1,5243	-0,91019
-5,3425	-3,5092	2,5642
2,1006	-3,013	4,5496
-6,8312	-0,5318	5,5423
-1,8691	-0,035559	11,498
-6,3349	-2,0205	12,987
-4,8463	-2,0205	11,498
-13,778	-0,035559	-0,41385
8,5514	-1,5243	13,98
4,0855	-2,0205	11,498
5,5741	-0,5318	16,462
-1,3728	0,46068	11,498
-5,3425	0,46068	4,5496
-1,8691	3,4381	9,5131
0,11579	2,4456	11,002
0,612	1,9494	2,0679
-0,87663	4,9268	0,57885
1,1082	2,4456	1,5715
1,6044	1,9494	7,5277
1,1082	1,9494	14,973
1,6044	3,4381	14,973
4,0855	3,9343	14,477
-0,38042	3,4381	11,498
4,5817	4,4306	17,455
2,5968	5,9193	14,973
-4,8463	2,4456	5,046
-8,816	-4,5017	-3,3919
-15,763	-5,9904	-6,37
-7,8236	-5,9904	-10,341
-1,8691	-3,5092	-3,3919
6,5665	-3,5092	3,5569
0,612	-1,5243	-7,859
-8,3198	-2,0205	-17,29
-3,8539	-0,5318	-18,282
-13,282	-0,035559	-30,195
0,11579	-4,0055	-18,779
-4,3501	-5,9904	-20,268
1,1082	-3,5092	-14,808
3,5893	-3,013	-12,326
0,612	-1,5243	-17,29
3,5893	0,46068	-13,815
20,957	-3,5092	11,498
0,11579	-3,5092	-22,749
9,5438	-1,5243	-12,823
8,0552	-4,9979	-8,3554
1,6044	-6,4866	-15,304
-3,8539	-5,4942	-18,282
-8,3198	1,4532	-18,779
4,5817	-0,035559	-8,8517
3,0931	-2,0205	-6,8663
2,5968	-0,035559	2,5642
-6,8312	1,9494	2,5642
-5,3425	1,4532	3,0606
-5,3425	4,9268	14,973
-1,3728	4,4306	9,5131
-0,38042	3,9343	22,914
-3,3577	4,4306	19,936
-10,305	3,4381	18,447
0,612	0,46068	27,382
-2,3653	0,46068	22,418
-2,3653	2,4456	18,944
5,0779	0,46068	13,98
-2,3653	2,4456	5,5423
1,6044	4,9268	10,009
2,5968	3,9343	3,5569
9,5438	4,4306	19,44
-11,297	-1,028	-1,9029
-11,297	-5,9904	-6,37
-2,3653	-7,9754	-0,41385
-0,38042	-5,9904	-4,3846
0,11579	-7,4791	1,0752
-4,3501	-4,9979	-3,3919
-6,3349	-4,0055	-3,3919
-5,8387	-2,0205	2,0679
-10,305	-2,5167	-21,757
-5,3425	1,9494	-12,326
1,6044	-0,5318	-2,8956
0,612	0,46068	-0,91019
3,0931	-3,5092	-0,91019
-0,87663	-2,0205	-5,3773
-3,3577	-2,5167	-6,8663
3,5893	-1,5243	-1,4065
-0,87663	-0,5318	-7,3627
6,0703	2,4456	-1,4065
-10,305	2,9419	-11,83
-10,305	0,95692	-8,3554
-8,3198	-3,5092	-2,3992
-1,8691	1,4532	1,0752
0,612	0,95692	3,5569
-0,87663	-0,035559	5,5423
-4,3501	3,9343	5,5423
-2,3653	3,4381	5,5423
-7,3274	3,4381	-0,41385
-5,3425	6,4155	4,0533
-2,8615	3,4381	-7,3627
-3,3577	2,9419	-12,326
-0,38042	2,9419	0,57885
-3,3577	1,9494	1,0752
-1,8691	1,9494	1,0752
-5,3425	0,95692	-1,4065
7,0627	2,4456	4,5496
8,5514	0,95692	1,5715
-0,38042	3,4381	-6,37
4,0855	5,9193	1,0752
-18,244	3,9343	-20,764
-9,8084	3,9343	-8,8517
-11,297	-4,5017	-9,8444
-3,3577	-8,9678	-12,823
3,5893	-10,457	-4,3846
1,6044	-6,4866	-7,859
-1,3728	-4,0055	-10,341
-0,87663	-3,013	-12,326
-7,8236	-2,0205	-3,8883
2,5968	1,4532	9,0167
0,11579	-2,5167	4,5496
-7,8236	-4,5017	-5,3773
-3,3577	-1,5243	3,5569
-4,8463	-2,0205	2,5642
1,1082	-2,0205	6,535
-1,3728	-2,5167	1,5715
6,5665	-2,0205	3,5569
4,5817	-1,028	2,5642
0,612	0,46068	2,5642
5,5741	5,9193	11,498
-5,8387	3,4381	-6,37
-6,3349	1,4532	-4,881
-9,8084	-3,5092	-4,3846
-1,3728	0,46068	1,5715
6,0703	0,46068	9,5131
2,1006	-1,028	7,5277
3,5893	0,46068	10,506
-0,87663	2,4456	7,0313
-4,8463	1,9494	2,0679
13,017	10,385	11,002
-8,816	1,4532	-10,341
-0,87663	1,9494	-1,4065
-2,3653	2,4456	-4,3846
-7,8236	3,4381	-2,3992
-2,8615	1,9494	8,5204
-6,3349	-0,035559	9,0167
1,1082	1,4532	9,5131
2,5968	2,4456	10,506
-2,8615	2,9419	-2,3992
4,5817	7,9042	18,944
-5,3425	3,9343	7,0313
-9,8084	1,9494	5,5423
-10,305	-5,4942	5,5423
-2,3653	-9,9603	6,535
3,5893	-11,945	7,5277
-2,3653	-10,457	-2,3992
-3,8539	-6,9829	-3,8883
-2,8615	-6,9829	-6,8663
-10,305	-7,4791	-11,333
7,5589	0,95692	-1,9029
-0,87663	-2,0205	-14,312
-0,87663	-1,028	-32,18
-6,8312	-1,028	-22,253
-4,3501	-0,5318	-28,209
0,612	0,46068	-18,779
-3,8539	-0,5318	-18,282
4,5817	-0,5318	-13,319
2,5968	0,95692	-13,815
-0,87663	-2,0205	-17,29
9,0476	6,4155	-4,881
0,11579	0,46068	-8,3554
-3,3577	0,46068	-4,881
4,0855	-4,0055	-7,3627
1,1082	-1,028	-12,326
1,6044	0,46068	-6,37
4,0855	-0,5318	-3,3919
1,1082	-1,5243	-4,3846
-1,3728	-1,5243	-6,37
-16,755	0,95692	-17,786
-5,3425	6,9118	-2,3992
-3,8539	1,9494	6,0387
-2,8615	-0,5318	9,0167
-3,8539	-0,035559	11,498
-5,3425	3,4381	14,477
-2,8615	1,9494	18,447
-2,3653	2,9419	17,455
2,5968	3,9343	15,469
-1,8691	2,4456	7,5277
-1,3728	3,9343	8,024
4,0855	8,8967	15,469
1,6044	2,9419	9,5131
-12,289	3,4381	-4,3846
-4,8463	-2,5167	-0,41385
0,11579	-7,9754	7,0313
4,5817	-6,4866	23,907
3,0931	-5,9904	49,717
4,0855	-5,4942	54,184
-5,3425	-4,9979	54,681
-2,8615	-4,9979	57,162
5,5741	-5,9904	51,206
-1,3728	-1,5243	40,783
-0,38042	-2,5167	33,338
-13,778	-3,013	12,491
-6,8312	-4,0055	9,5131
-10,801	-3,5092	-2,8956
-4,8463	-5,9904	-14,312
-0,38042	-5,4942	-18,779
2,1006	-4,9979	-22,253
-0,87663	-4,9979	-20,764
5,0779	2,9419	-15,304
-2,3653	-2,0205	-25,231
-5,3425	-2,0205	-14,808
-2,3653	-5,9904	-22,749
-4,3501	0,46068	-18,282
-2,8615	1,4532	-21,757
-7,8236	-1,028	-24,735
1,6044	-0,035559	-15,304
-3,3577	-1,028	-19,275
-1,8691	-1,028	-17,786
1,6044	-1,5243	-25,231
-0,87663	4,9268	-21,757
2,1006	1,9494	-16,297
-5,3425	1,9494	-25,231
-12,289	3,9343	-29,698
-11,793	4,4306	-26,72
-4,8463	5,9193	-24,238
-0,87663	4,4306	-6,8663
-1,8691	2,4456	0,57885
-7,3274	2,4456	9,0167
-10,801	-0,5318	5,5423
-3,8539	2,4456	11,498
-4,8463	4,9268	6,0387
1,6044	2,4456	7,0313
-8,3198	-2,0205	-1,9029
-4,3501	-5,9904	0,0825
-7,3274	-2,0205	-6,8663
-7,8236	-3,013	-2,3992
-12,786	-4,5017	-0,91019
-0,87663	-3,5092	1,0752
1,6044	-3,5092	-0,91019
9,0476	-1,028	-2,8956
6,5665	-1,5243	-8,3554
-3,3577	-2,5167	-10,341
-2,3653	-3,013	1,5715
-10,305	-2,5167	-4,3846
-3,8539	-7,4791	-3,8883
-4,3501	-5,9904	-6,37
-19,733	-6,9829	-28,209
-1,8691	-4,9979	3,5569
-1,8691	-4,9979	8,5204
0,612	-1,5243	17,455
2,1006	-2,5167	15,469
7,0627	-4,5017	16,958
4,5817	1,9494	23,907
-1,8691	4,9268	25,396
1,1082	4,4306	44,257
-3,3577	1,4532	45,25
-7,3274	0,46068	59,148
7,5589	0,95692	72,053
6,5665	-1,028	70,067
5,5741	3,9343	63,118
-3,8539	3,9343	51,206
-6,3349	4,4306	37,805
-8,3198	5,4231	24,403
-24,695	3,9343	-2,3992
-7,8236	5,4231	-3,3919
-9,8084	3,9343	-13,319
-5,8387	2,9419	-17,29
-3,3577	3,4381	-22,749
-5,8387	5,4231	-28,209
-5,3425	5,9193	-33,669
-16,755	2,4456	-62,953
-1,8691	-5,4942	-46,078
2,5968	-11,945	-30,691
-11,297	-11,945	-41,114
-5,3425	-8,4716	-24,735
-2,3653	-7,4791	-15,304
-12,786	-5,9904	-21,26
5,5741	-5,4942	-14,808
15,498	-7,9754	-23,742
6,5665	-1,028	-20,268
14,01	-2,0205	-21,757
-1,8691	-2,0205	-25,231
-3,3577	-4,0055	-26,224
-5,3425	-5,9904	-31,684
-2,3653	-3,013	-32,676
-4,8463	-4,9979	-36,151
-2,8615	-4,9979	-40,618
-2,3653	-4,5017	-21,757
-1,8691	-5,4942	-12,823
-0,87663	-2,0205	-12,326
7,5589	-4,0055	-9,8444
-0,87663	-7,9754	-15,304
0,11579	-3,013	-12,326
-1,8691	-2,5167	-6,8663
-0,38042	-5,9904	-4,3846
-0,38042	-5,4942	-4,3846
-5,8387	-3,013	-4,3846
1,6044	-0,035559	-4,3846
2,5968	1,9494	1,5715
4,0855	2,4456	6,0387
2,1006	7,408	3,0606
0,612	4,4306	15,469
-4,3501	4,9268	27,382
-3,3577	5,9193	37,308
3,5893	3,9343	46,243
-16,259	5,9193	23,411
-8,3198	5,9193	39,294
-12,786	3,9343	42,768
-1,3728	4,4306	53,192
-11,793	6,4155	35,323
-23,206	5,9193	5,5423
-2,8615	-2,5167	17,455
-2,8615	-7,9754	18,447
-3,8539	-6,4866	18,944
-4,3501	-4,0055	13,484
-0,87663	-4,0055	10,506
-7,8236	-3,5092	-18,282
4,0855	-6,4866	-8,3554
7,5589	-5,9904	-0,41385
10,04	-2,0205	4,0533
-2,3653	-6,4866	-4,881
4,0855	-7,4791	-0,41385
-1,8691	-4,5017	-8,3554
0,11579	-3,013	-11,83
-6,3349	-4,0055	-36,647
1,6044	-0,5318	-8,8517
-8,3198	0,46068	-28,209
-2,3653	-0,035559	-32,18
-2,3653	-1,028	-39,129
-3,8539	0,46068	-40,122
3,5893	0,46068	-42,603
-5,8387	-3,013	-45,581
-8,3198	3,4381	-42,107
-6,8312	3,9343	-40,618
-8,816	1,9494	-29,202
-5,3425	-0,5318	-21,757
-0,87663	1,9494	-19,275
-1,8691	1,9494	-12,823
-0,87663	4,4306	-11,333
0,612	2,9419	-8,8517
1,1082	0,95692	-9,3481
-12,786	1,9494	-19,275
-31,145	1,4532	-36,151
-7,8236	-2,5167	-3,8883
-6,8312	-4,0055	6,535
4,0855	-4,9979	25,892
2,1006	-6,4866	30,36
1,1082	-6,9829	27,382
-1,8691	-3,5092	23,411
-1,3728	-1,028	32,841
6,0703	-2,0205	40,287
-2,3653	-5,9904	37,805
-1,3728	-9,4641	38,301
-3,3577	-6,9829	39,294
-9,8084	-6,4866	33,338
-0,38042	-7,9754	43,265
7,5589	-6,4866	38,301
9,5438	-8,4716	31,352
7,0627	-9,4641	31,352
1,1082	-5,9904	25,892
0,612	-7,4791	21,425
-22,214	-5,4942	-7,859
-10,305	-7,4791	2,0679
3,0931	-6,4866	-1,4065
15,995	-7,9754	3,0606
5,0779	-8,9678	-4,881
2,1006	-8,4716	-16,793
-0,87663	-9,4641	-27,217
0,612	-7,9754	-28,209
7,0627	-2,5167	-27,217
-0,87663	-2,0205	-30,691
-5,3425	-4,9979	-31,187
-7,8236	-0,035559	-28,209
-7,8236	-0,035559	-28,209
-8,3198	-3,013	-32,18
-0,38042	-4,9979	-23,246
13,513	-4,5017	-3,3919
5,0779	-3,5092	-10,341
15,498	-0,5318	-7,3627
5,0779	3,9343	-7,859
3,0931	3,9343	4,5496
-0,38042	3,4381	5,5423
-5,3425	5,9193	0,57885
-0,87663	3,4381	0,57885
-1,8691	3,4381	-1,9029
1,6044	1,9494	2,0679
1,6044	2,4456	2,5642
-1,3728	4,4306	3,5569
-6,3349	1,9494	-3,3919
3,0931	3,9343	-0,41385
-2,8615	3,4381	-6,8663
0,612	-2,0205	-1,9029
-4,8463	-6,9829	5,5423
-6,3349	-8,9678	1,0752
-4,8463	-7,9754	2,0679
-15,267	-5,9904	-3,3919
-15,763	-7,4791	-19,275
-2,3653	-5,9904	4,5496
4,5817	-3,5092	9,0167
5,5741	-1,5243	16,462
6,5665	-1,5243	13,98
3,5893	-2,5167	10,506
16,987	-4,0055	23,411
6,5665	-4,5017	3,5569
9,5438	-7,4791	21,425
-2,3653	-5,9904	-6,37
3,0931	-7,9754	-0,41385
-5,3425	-7,4791	-12,326
-8,3198	-7,9754	-18,779
3,0931	-4,5017	-14,808
7,0627	-4,5017	-12,326
6,5665	-6,9829	-4,881
7,0627	-6,9829	-0,91019
2,1006	-3,5092	-3,3919
-1,8691	-3,5092	-4,3846
-4,3501	-4,9979	-2,8956
3,5893	-4,0055	1,0752
0,612	-5,9904	-1,9029
2,5968	-5,9904	0,57885
-2,3653	-2,5167	0,0825
-1,8691	-3,013	-2,8956
-6,8312	-3,013	-7,859
4,0855	-2,0205	-3,3919
2,1006	-1,028	-0,41385
13,017	-4,0055	21,425
-5,8387	-0,035559	-0,41385
-3,3577	0,95692	-0,91019
-5,3425	1,9494	12,491
-11,297	0,95692	13,484
-2,8615	2,9419	13,98
-4,8463	3,9343	11,002
-0,38042	0,46068	15,469
-13,282	-4,5017	-0,91019
-14,771	-9,9603	-0,91019
-8,3198	-10,953	0,57885
-2,8615	-9,4641	0,57885
-4,8463	-7,4791	-1,9029
5,0779	-6,4866	9,5131
-5,8387	-1,5243	2,5642
6,0703	0,46068	15,469
0,11579	0,95692	7,5277
-4,8463	2,4456	2,5642
-8,3198	0,95692	-10,341
7,0627	-2,0205	11,498
-8,816	-1,5243	-2,8956
-10,801	-5,4942	-3,8883
-13,282	-2,0205	-10,341
-9,3122	-2,0205	-4,3846
-5,8387	-4,0055	-5,8737
6,0703	-2,0205	-4,3846
4,5817	-5,4942	-16,297
4,0855	-2,0205	3,0606
0,612	-5,9904	10,506
-2,8615	-2,0205	12,987
-3,8539	0,46068	14,477
-4,8463	-3,013	3,5569
-2,8615	-4,5017	5,5423
-3,8539	-3,013	2,5642
-12,289	-1,5243	7,5277
-6,8312	0,46068	11,002
-1,8691	2,4456	15,469
-5,3425	-0,035559	13,484
-14,274	1,4532	-9,3481
5,0779	0,95692	2,5642
8,0552	-0,035559	3,5569
5,5741	-1,028	6,535
7,0627	-0,5318	0,57885
-2,3653	-3,5092	-18,779
-1,3728	0,95692	-12,326
4,0855	5,4231	-9,8444
3,5893	5,9193	-10,837
6,5665	6,9118	-6,37
0,612	-0,035559	-4,881
3,5893	-3,013	17,455
8,5514	-5,9904	44,257
6,5665	-6,9829	27,878
0,612	-4,9979	19,44
1,6044	-4,5017	25,892
7,5589	-5,9904	29,863
5,5741	2,4456	34,827
-1,8691	-1,028	18,944
-12,786	-1,028	0,57885
0,11579	-0,035559	3,5569
-4,8463	0,46068	-7,3627
-4,8463	-0,5318	-0,91019
-14,771	-3,5092	-16,793
-18,74	-3,5092	-28,209
-21,221	-4,9979	-33,669
14,01	-4,5017	-9,8444
2,5968	-2,5167	-16,297
1,6044	-1,5243	-18,282
-4,8463	-1,028	-16,793
-18,74	-6,4866	-40,122
-4,8463	-3,013	-17,786
-7,3274	-1,028	-15,801
0,612	-1,5243	-20,764
-5,3425	-4,5017	-24,238
-3,3577	0,95692	-22,253
-10,305	0,95692	-27,713
-6,3349	2,4456	-22,253
-6,8312	1,4532	-7,859
0,612	1,9494	-11,333
2,5968	-0,5318	-13,815
4,0855	-2,0205	-11,333
-3,3577	-0,035559	-9,3481
-1,8691	-1,028	-0,41385
-4,3501	-0,035559	2,5642
-9,3122	-0,5318	3,0606
-3,3577	-0,035559	-0,91019
-3,8539	1,4532	0,57885
-5,8387	1,9494	4,5496
-6,8312	1,9494	6,535
2,5968	0,46068	15,469
1,6044	-5,4942	11,498
-13,778	-5,4942	-0,41385
8,0552	-8,9678	10,506
3,5893	-5,9904	9,5131
2,5968	-5,9904	9,0167
-2,3653	-5,4942	9,5131
-8,816	-4,5017	0,57885
-10,305	-4,5017	11,498
-11,793	-4,5017	10,506
7,5589	0,46068	34,827
-5,8387	-3,5092	13,98
5,0779	-7,4791	7,0313
-0,87663	-7,4791	13,484
-6,3349	-5,9904	14,477
-4,8463	-5,9904	12,987
4,0855	-5,4942	13,484
1,6044	-5,4942	9,5131
-1,3728	-6,4866	6,535
-16,755	-4,5017	-6,37
2,1006	-4,5017	15,469
-16,755	-7,4791	-5,3773
-28,664	-3,5092	-6,8663
-9,3122	-5,4942	-3,3919
-2,8615	-7,9754	11,498
-4,3501	-7,4791	12,987
-6,8312	-9,4641	14,477
-7,8236	-5,9904	16,462
-9,8084	-9,9603	11,498
-6,3349	-10,457	5,046
-6,8312	-11,945	7,5277
-12,786	-8,9678	15,469
-11,793	-9,9603	34,827
-29,161	-7,9754	21,425
-22,71	-7,4791	29,367
-21,717	-4,0055	30,36
-14,274	-5,9904	19,936
-2,8615	-6,4866	29,367
-5,3425	-9,9603	29,367
-11,297	-10,457	18,447
-11,297	-9,9603	16,462
-16,259	-13,434	9,5131
-11,793	-20,381	4,5496
-27,176	-20,878	-9,3481
-25,687	-15,915	-12,326
-30,153	-14,923	-17,29
-32,138	-13,93	-14,808
-27,672	-16,908	-16,793
-29,161	-13,434	-12,823
-23,206	-15,915	-18,282
-24,695	-14,923	-21,757
-27,672	-14,426	-18,282
-28,664	-13,434	-18,779
-36,108	-13,434	-26,224
-40,573	-13,93	-28,209
-40,077	-12,441	-23,246
-34,123	-9,9603	-18,779
-33,13	-9,9603	-12,326
-35,115	-13,93	-4,3846
-37,596	-13,93	3,5569
-32,634	-10,953	11,498
-35,115	-13,434	13,484
-52,483	-10,953	-22,253
-42,558	-6,4866	1,5715
-45,039	-10,457	-1,4065
-42,062	-7,9754	7,0313
-33,13	-6,4866	7,0313
-35,115	-4,5017	4,5496
-38,092	-2,0205	-3,3919
-24,199	-0,035559	-1,9029
-28,168	4,4306	-0,41385
-28,664	2,9419	-2,3992
-30,153	4,9268	-1,4065
-34,123	6,4155	-10,341
-20,229	5,4231	5,046
-23,206	6,9118	-11,83
-15,763	5,4231	-8,8517
-8,816	8,8967	-1,4065
-11,793	5,9193	-6,37
-12,289	4,4306	-7,859
-12,289	2,9419	-11,333
-12,786	1,9494	-10,837
1,6044	-3,5092	1,5715
-13,282	-5,9904	-18,282
-11,297	-9,9603	-15,304
-8,3198	-4,0055	-14,808
-5,3425	-5,9904	-1,9029
2,5968	-9,4641	6,535
4,0855	-7,4791	7,5277
11,032	-3,5092	12,987
15,498	-1,5243	23,411
13,513	-2,5167	21,922
-11,793	-3,013	-4,3846
4,0855	-3,013	13,484
2,1006	-0,035559	12,987
2,5968	-2,0205	18,944
11,032	-4,0055	12,491
13,513	-4,0055	12,987
5,5741	-3,5092	11,498
8,5514	-4,5017	8,024
10,536	-9,4641	4,5496
6,0703	-4,9979	9,0167
20,46	-5,9904	13,484
20,957	2,4456	10,506
13,017	6,4155	-2,8956
17,483	6,9118	-2,8956
18,476	8,4005	-2,3992
23,438	8,8967	-3,3919
32,866	9,393	-1,4065
38,324	7,9042	-1,4065
37,828	10,385	-17,786
44,279	10,385	-0,41385
55,691	11,874	9,5131
43,286	12,37	-5,3773
15,002	13,859	-34,165
33,362	14,355	-22,253
34,354	12,867	-18,282
25,919	14,852	-18,779
36,339	25,769	1,5715
27,407	12,867	-5,8737
24,43	13,363	-3,3919
30,385	12,37	1,5715
27,407	11,874	1,0752
23,934	4,4306	1,5715
4,0855	2,9419	-28,706
12,521	-0,035559	-4,3846
8,0552	-1,028	-6,37
6,0703	1,9494	-2,3992
19,964	-0,035559	6,535
18,972	-1,028	6,535
15,002	-2,5167	5,046
9,5438	-0,035559	-0,41385
-2,8615	0,46068	-10,341
5,5741	-1,5243	7,5277
2,5968	-0,5318	9,5131
15,498	-1,028	13,484
15,498	-2,5167	13,98
5,5741	-5,9904	9,5131
1,1082	-6,4866	12,491
-6,3349	-4,5017	12,491
-7,8236	-4,0055	8,5204
-2,8615	-3,5092	3,5569
-2,3653	-4,0055	10,506
-1,3728	0,95692	11,002
-10,801	3,4381	10,009
-10,305	-0,035559	8,5204
-13,282	-6,4866	4,5496
-20,725	-0,5318	3,5569
-21,221	3,4381	7,5277
-40,573	6,9118	-3,8883
-43,055	9,393	-0,91019
-40,077	5,4231	1,5715
-27,176	4,9268	6,535
-14,274	2,4456	10,506
1,1082	0,46068	11,002
12,521	-1,5243	10,009
24,926	-1,028	12,491
31,873	-5,9904	7,5277
34,851	-4,9979	8,5204
31,377	-5,4942	9,5131
32,369	-0,5318	15,966
32,369	-2,5167	9,0167
37,332	-4,0055	18,447
22,941	-11,945	18,447
20,957	-15,915	29,367
15,002	-17,9	29,367
15,002	-12,441	36,316
7,5589	-8,9678	29,367
18,972	-4,0055	26,389
10,536	-4,0055	10,506
5,5741	-4,5017	11,498
-0,38042	-2,0205	3,5569
-4,3501	-2,0205	4,0533
-19,733	-3,5092	-12,823
-12,786	-4,5017	-4,3846
-22,214	-4,9979	-9,3481
-20,725	-4,5017	-12,326
-19,236	-2,5167	-8,3554
-12,786	-1,5243	-5,3773
-4,8463	-0,035559	10,506
-9,8084	-2,5167	7,0313
0,11579	-2,0205	6,0387
1,1082	-1,5243	9,0167
-0,87663	-4,5017	8,5204
0,11579	1,9494	10,506
-19,236	7,408	-14,312
-10,305	5,4231	5,046
-4,3501	4,4306	11,002
-0,38042	6,4155	12,987
2,5968	4,4306	14,477
3,5893	3,4381	15,469
2,5968	2,9419	16,462
0,11579	3,9343	11,498
1,6044	7,9042	7,5277
4,0855	5,9193	7,0313
9,0476	8,4005	19,44
4,5817	11,378	13,484
0,11579	12,37	8,024
-14,771	10,385	-10,341
-16,755	9,8892	-11,83
-17,748	7,408	-15,801
-22,71	4,9268	-31,684
-7,3274	7,9042	-25,231
0,612	4,9268	-23,246
1,1082	0,46068	-24,238
2,5968	0,95692	-20,268
2,5968	-0,035559	-26,72
15,498	-1,028	-18,282
18,972	-1,5243	-15,304
10,536	-6,4866	-28,706
8,0552	-1,5243	-4,3846
8,0552	-4,0055	-2,3992
8,5514	-5,4942	1,5715
7,0627	-6,9829	5,046
8,5514	-5,9904	9,5131
3,0931	-4,0055	4,5496
18,476	-2,5167	22,914
-1,3728	-2,0205	3,0606
0,612	2,9419	3,5569
-7,3274	1,9494	7,0313
-6,8312	1,4532	3,5569
-7,3274	1,9494	3,0606
-6,8312	1,9494	3,5569
-10,305	-3,5092	-3,3919
-10,305	2,4456	-0,41385
-13,778	4,4306	-2,8956
-6,3349	15,844	10,506
-3,3577	9,393	-0,41385
-2,8615	10,385	2,5642
-1,3728	8,8967	1,5715
-3,8539	10,385	-0,91019
-19,236	7,9042	-20,268
-13,778	7,9042	-9,8444
-16,259	7,9042	-18,282
-7,3274	5,9193	-13,815
-2,3653	9,393	-12,326
2,5968	9,393	-10,341
0,11579	8,8967	-8,3554
-0,38042	7,9042	-12,326
-3,3577	9,8892	-16,297
-1,3728	10,882	-20,764
1,6044	9,393	-4,881
6,5665	10,385	6,535
-6,3349	11,874	0,0825
-7,8236	4,9268	3,5569
-6,8312	-4,5017	10,009
-11,793	-5,9904	5,5423
7,5589	-3,013	12,987
7,0627	-4,0055	10,506
5,5741	-1,028	7,0313
0,612	-0,035559	2,5642
2,1006	3,9343	9,5131
-2,8615	1,9494	5,5423
1,1082	1,4532	3,0606
5,0779	0,46068	5,5423
1,1082	-0,035559	8,5204
0,612	-1,028	14,973
-7,8236	-0,035559	23,907
-10,305	1,9494	33,834
-21,717	-0,5318	32,841
-14,274	0,95692	41,279
-17,748	-0,035559	39,294
-20,229	-3,5092	35,323
-13,282	-3,013	34,33
-20,725	-6,4866	12,491
-17,748	-1,028	7,0313
-15,763	1,9494	-5,3773
-7,3274	0,95692	-22,749
-12,786	4,9268	-43,1
-12,289	7,9042	-52,53
-10,801	4,9268	-57,99
-8,816	3,4381	-69,406
-2,3653	3,9343	-56,997
6,0703	1,9494	-53,027
5,0779	-1,5243	-54,019
8,5514	1,4532	-47,07
4,0855	5,9193	-44,092
11,529	4,9268	-34,662
11,032	2,4456	-36,151
-5,8387	1,9494	-43,1
4,0855	1,9494	-44,092
3,5893	0,95692	-38,136
0,612	3,4381	-36,647
3,5893	1,9494	-28,706
8,5514	1,9494	-15,304
-3,8539	-2,5167	-19,771
-1,3728	-2,0205	-18,779
0,11579	-1,028	-14,312
1,6044	-3,013	-4,881
-18,244	-1,5243	-38,136
-12,289	-1,028	-21,26
-9,8084	-3,5092	-16,297
-1,8691	5,4231	-8,3554
0,612	-1,028	-7,3627
-2,3653	1,9494	-3,8883
-12,786	-2,0205	-5,8737
-11,793	-2,0205	3,5569
-13,778	-1,5243	5,046
-31,642	-4,0055	-15,801
-12,289	-3,5092	14,477
3,5893	-4,9979	21,425
1,1082	-4,5017	21,425
-7,3274	-4,9979	7,5277
-0,38042	-5,4942	29,367
15,002	-8,9678	57,162
-0,38042	-4,0055	31,352
8,5514	-0,035559	56,17
4,5817	2,4456	39,294
8,5514	2,4456	42,768
2,1006	4,4306	38,301
-1,3728	6,9118	36,812
0,11579	4,4306	36,316
-2,3653	2,4456	35,323
8,0552	1,9494	34,33
4,0855	2,4456	31,352
-1,8691	-0,5318	23,411
-6,3349	-1,5243	18,447
-2,3653	2,9419	22,418
-8,816	0,95692	19,44
3,5893	-1,028	37,308
4,0855	-2,0205	39,294
1,6044	-0,035559	40,287
-5,8387	-0,5318	33,338
-3,3577	0,95692	38,301
-5,8387	3,9343	39,294
0,612	5,9193	46,739
10,04	-2,5167	39,294
-0,87663	-5,4942	33,834
-7,8236	-2,5167	24,9
-10,305	-3,5092	20,929
-15,267	-5,9904	10,506
-0,38042	-6,9829	24,403
-5,3425	-4,9979	15,469
0,11579	-5,4942	9,5131
-0,87663	-3,5092	20,433
-4,8463	-0,5318	15,469
-4,8463	-0,5318	24,9
-11,793	-2,0205	13,484
-17,748	-1,5243	14,973
-10,801	-2,0205	13,98
-5,3425	-4,5017	21,922
-6,3349	-1,5243	23,411
-9,8084	0,46068	18,944
-6,3349	0,46068	19,936
-15,267	-1,028	9,5131
-11,297	-6,4866	15,469
-3,3577	-2,0205	10,506
-8,3198	-0,5318	6,535
-7,8236	-3,013	-2,8956
-11,297	-1,5243	-1,4065
-5,3425	-1,5243	11,498
-10,305	3,9343	8,5204
8,5514	5,9193	20,433
11,529	5,9193	14,973
11,529	4,4306	15,469
12,521	6,9118	13,484
3,5893	4,4306	9,5131
3,5893	5,9193	14,477
-5,8387	6,9118	11,002
-2,3653	9,393	4,5496
-7,3274	9,393	1,0752
-6,8312	8,8967	-0,41385
-1,8691	6,4155	16,958
-9,8084	4,9268	-2,3992
-13,282	4,9268	-8,3554
-13,282	1,4532	-2,3992
-13,778	-5,9904	-11,333
-2,3653	-7,4791	-3,8883
-6,3349	-5,4942	-1,4065
-19,236	-6,4866	-14,312
-15,763	-5,9904	-0,41385
-15,267	-4,0055	3,5569
-7,3274	-4,0055	13,484
-6,8312	-5,4942	19,44
-0,87663	-4,0055	23,411
4,0855	4,4306	38,301
-1,3728	-3,5092	27,382
-1,8691	-3,013	25,892
-8,3198	-1,5243	19,44
2,5968	-1,5243	20,929
-0,38042	-0,5318	22,914
-2,3653	-2,0205	29,367
-6,3349	-3,013	30,36
-17,748	-4,0055	23,411
-8,816	-2,5167	38,797
-4,8463	-4,5017	36,316
-3,8539	-6,4866	34,33
-4,8463	-0,5318	36,812
-0,87663	-1,028	40,287
-5,8387	-0,035559	36,812
-3,8539	-1,5243	39,294
-7,3274	-1,028	34,33
1,1082	3,4381	33,834
4,5817	1,9494	33,834
2,5968	4,4306	38,301
-2,8615	2,9419	14,477
-8,3198	3,9343	13,484
-5,3425	5,9193	17,455
-11,793	5,9193	5,046
13,513	4,4306	19,44
3,5893	15,348	5,046
12,025	4,9268	9,0167
3,5893	4,9268	-0,91019
10,536	3,9343	2,0679
24,43	5,4231	12,987
11,032	4,9268	-9,3481
-4,8463	-3,013	-30,691
-0,38042	-7,4791	-6,8663
1,1082	-9,9603	0,57885
6,0703	-5,4942	19,44
-1,3728	-1,028	6,535
-6,8312	-2,0205	6,0387
-7,8236	-4,9979	2,5642
-1,3728	-3,013	7,5277
-2,3653	-3,013	8,024
-9,3122	-2,0205	7,5277
-9,3122	-0,035559	10,506
-17,252	1,4532	6,535
4,5817	1,9494	23,411
-12,289	0,95692	4,5496
-3,8539	-1,5243	18,944
-10,801	-1,5243	12,987
4,0855	-2,5167	35,323
-16,259	-4,0055	15,469
-5,8387	-4,0055	25,396
-2,3653	-3,5092	15,469
-11,793	-4,5017	3,5569
-14,771	-0,035559	9,5131
-22,71	2,4456	-4,3846
-14,771	-0,5318	8,024
-11,793	1,9494	12,987
-9,8084	-0,035559	4,5496
-0,38042	1,4532	18,944
-1,3728	0,46068	18,447
2,1006	3,4381	35,323
-5,8387	4,9268	17,951
-7,3274	4,4306	14,477
-20,229	3,9343	-1,4065
-7,3274	6,4155	5,046
-4,3501	5,9193	5,5423
10,04	3,4381	29,367
-19,236	4,4306	-2,3992
-0,38042	3,9343	9,5131
-4,8463	4,4306	8,5204
-4,8463	6,4155	6,0387
0,612	4,4306	-1,9029
0,612	0,95692	-6,8663
0,11579	-6,9829	-10,837
2,1006	-9,9603	-10,341
-9,3122	-5,9904	-29,698
2,5968	3,9343	-22,253
4,0855	-0,5318	-32,18
12,521	-2,0205	-19,275
4,5817	-4,9979	-45,581
9,5438	-5,9904	-54,019
12,025	-5,9904	-54,516
14,506	-6,9829	-62,457
7,0627	-6,9829	-80,822
8,0552	-6,4866	-83,8
11,529	-2,5167	-84,793
4,0855	-1,5243	-89,26
-8,816	-3,013	-98,194
-12,289	-2,0205	-98,69
-19,236	-6,4866	-106,63
-9,3122	-10,953	-105,14
-12,289	-6,9829	-110,11
-20,229	-11,449	-120,53
-16,755	-3,5092	-105,64
-37,596	-2,0205	-122,52
-23,206	-1,5243	-113,08
-24,199	-1,5243	-114,08
-26,183	1,9494	-126,49
-21,221	1,9494	-123,01
-21,717	-1,5243	-125,99
-19,733	-0,035559	-118,05
-13,282	0,95692	-110,11
-5,8387	-0,5318	-101,67
-12,289	-2,0205	-106,14
-5,3425	-4,5017	-112,09
-1,8691	-4,5017	-103,65
-3,8539	-8,4716	-100,68
-2,3653	-7,4791	-85,785
-14,274	-7,4791	-90,253
-2,8615	1,9494	-70,399
-2,3653	-2,5167	-78,34
0,11579	-3,013	-78,837
-1,3728	-2,5167	-76,851
-0,87663	-9,4641	-73,873
5,0779	-14,426	-68,91
4,0855	-14,923	-81,318
-7,3274	-11,449	-92,238
7,0627	-10,953	-97,201
11,529	-8,9678	-92,734
5,5741	-9,4641	-93,727
-4,3501	-8,4716	-98,194
-8,3198	-7,9754	-96,705
1,6044	-9,4641	-72,384
8,0552	-7,9754	-85,785
18,476	-7,4791	-88,763
6,5665	-6,4866	-127,48
3,5893	-0,5318	-143,36
8,0552	-0,5318	-137,9
5,5741	-1,5243	-139,89
-4,3501	3,9343	-136,91
3,0931	4,9268	-132,94
-6,3349	5,4231	-130,95
-5,8387	7,408	-127,48
11,032	3,4381	-103,16
7,0627	9,393	-103,65
2,5968	4,9268	-101,67
0,612	2,9419	-105,14
10,04	-1,5243	-97,698
9,5438	-1,028	-88,267
7,0627	-0,035559	-90,253
1,1082	-1,028	-88,763
2,1006	-3,013	-90,253
5,0779	-3,013	-79,333
13,513	0,46068	-74,866
0,612	1,9494	-105,14
0,612	4,4306	-92,238
-4,8463	4,4306	-91,742
-0,38042	6,9118	-90,253
0,612	4,4306	-87,771
-2,8615	6,4155	-78,837
7,0627	6,4155	-71,391
8,5514	9,8892	-72,88
3,0931	11,874	-70,895
3,5893	19,814	-63,45
-0,38042	34,701	-63,946
-7,3274	38,671	-65,435
-8,816	39,167	-66,924
16,491	38,175	-39,625
-7,3274	35,197	-62,953
-3,3577	32,716	-39,129
-10,305	34,205	-40,122
-3,3577	32,22	-22,253
-14,771	27,754	-14,808
-4,8463	25,769	-6,37
-21,221	22,791	-18,779
-10,305	20,806	-0,91019
-4,3501	18,821	13,484
2,1006	15,844	26,389
-4,8463	14,355	38,301
0,612	16,837	41,279
5,0779	14,355	38,797
1,6044	12,37	39,294
-14,771	14,355	41,279
2,5968	8,8967	46,243
-12,786	12,867	23,411
-18,74	15,348	27,382
-10,305	10,882	32,841
-10,305	8,8967	36,316
0,612	6,9118	48,228
-0,87663	5,9193	46,243
-9,8084	5,9193	21,425
-0,38042	5,4231	24,403
-4,8463	7,9042	30,36
4,0855	9,393	35,819
-7,3274	9,8892	37,805
-10,801	6,9118	40,783
-11,793	3,4381	46,243
-8,3198	4,4306	47,235
-4,8463	0,95692	44,754
-1,3728	-0,035559	34,827
5,5741	5,4231	39,79
0,612	3,4381	21,425
-4,8463	3,4381	7,5277
-6,3349	-2,5167	13,484
-5,8387	-7,4791	11,995
-9,8084	-10,457	2,0679
6,0703	-8,4716	-0,41385
-3,3577	-10,457	-11,333
-3,8539	-10,953	-20,268
5,5741	-15,915	-20,268
11,529	-10,953	-20,268
13,017	-12,938	-18,282
4,5817	-13,434	-22,253
14,506	-10,953	-11,333
15,995	-11,945	9,5131
7,0627	-8,4716	-3,3919
4,0855	-6,9829	-2,8956
-0,87663	-7,4791	-2,3992
1,1082	-4,9979	-4,3846
1,1082	-5,9904	-3,3919
-8,816	-2,5167	-20,268
1,1082	-5,4942	-16,297
-3,3577	-4,5017	-22,253
-4,3501	-9,4641	-36,151
-12,786	-5,4942	-47,07
-7,8236	-5,4942	-46,078
7,0627	-4,5017	-45,581
8,0552	-3,5092	-48,063
1,1082	-3,5092	-56,997
1,6044	2,4456	-53,523
-6,3349	-0,035559	-64,443
-1,8691	-1,028	-66,428
-5,8387	-1,028	-79,829
-3,3577	0,95692	-83,8
7,5589	3,4381	-75,858
-5,8387	3,9343	-73,873
-2,3653	0,46068	-64,443
-3,3577	2,4456	-57,494
-8,3198	2,4456	-62,953
6,0703	5,4231	-37,64
0,612	5,9193	-37,64
6,0703	7,9042	-26,224
4,0855	11,378	-26,224
0,612	6,4155	-32,18
12,025	1,9494	-28,706
-0,87663	-3,5092	-46,078
4,5817	-2,5167	-41,114
16,987	7,408	-26,224
3,5893	2,4456	-44,092
6,0703	3,9343	-43,1
2,5968	3,9343	-38,136
1,1082	1,9494	-36,151
11,032	3,4381	-34,165
3,5893	1,9494	-47,567
10,04	0,95692	-44,589
4,5817	1,9494	-58,486
5,0779	-3,5092	-61,961
5,0779	0,95692	-55,012
-3,3577	0,95692	-62,953
8,0552	-3,5092	-53,523
-1,8691	-1,028	-53,027
-6,8312	-4,0055	-42,107
-6,3349	-4,0055	-38,136
-12,289	-7,4791	-54,019
-0,87663	-5,4942	-25,231
9,5438	0,95692	-8,3554
-1,8691	1,9494	-16,297
8,5514	1,9494	-7,3627
4,0855	3,9343	-15,304
5,0779	2,4456	-12,326
-4,3501	4,9268	-20,764
-11,297	1,9494	-20,268
-3,8539	1,9494	-15,304
-1,3728	3,4381	-13,319
7,0627	1,9494	-10,341
0,612	8,4005	-13,815
0,11579	7,408	-12,823
-0,87663	7,9042	-13,815
-7,3274	7,9042	-24,735
-4,8463	6,4155	-32,18
-6,3349	5,9193	-42,603
-19,236	7,408	-48,559
-18,244	9,393	-45,085
-1,3728	11,874	-37,143
-3,3577	4,9268	-28,706
-0,87663	2,4456	-30,691
3,5893	0,46068	-20,268
14,01	0,46068	-17,29
-1,8691	2,4456	-20,268
-7,3274	0,46068	-25,728
-4,3501	-0,035559	-18,779
3,5893	-0,035559	13,98
16,987	1,4532	16,958
7,5589	3,9343	-0,41385
20,957	3,4381	14,973
4,0855	4,9268	1,5715
-2,3653	4,4306	1,0752
-7,8236	11,874	22,914
2,5968	9,8892	21,922
5,5741	8,4005	27,878
-11,793	3,9343	17,455
-14,771	4,4306	32,345
-12,786	0,46068	47,235
-14,274	-3,013	55,177
-3,3577	-4,9979	63,615
6,5665	1,4532	65,104
24,43	0,95692	87,936
5,0779	2,4456	73,045
-0,87663	3,9343	67,089
4,0855	10,882	71,556
-16,259	10,882	34,33
-2,8615	7,9042	52,199
-1,8691	6,9118	56,17
-23,206	4,9268	41,776
6,0703	5,9193	66,593
2,5968	6,4155	67,089
1,6044	4,9268	57,659
-1,3728	3,4381	53,192
4,5817	3,9343	53,192
4,5817	1,9494	59,148
2,5968	7,9042	49,717
-1,3728	3,9343	54,681
-4,8463	4,4306	49,221
5,5741	6,9118	57,659
3,5893	0,46068	62,126
7,0627	-4,5017	54,184
-6,3349	-2,5167	52,199
5,0779	-3,013	57,162
-1,8691	-0,5318	59,644
-3,3577	-0,5318	58,155
-0,87663	-2,0205	62,126
13,513	0,95692	66,097
-7,8236	-3,013	41,776
-1,8691	-2,0205	53,688
-1,3728	-1,5243	56,666
-8,3198	-2,5167	47,235
1,6044	-3,013	58,651
-4,8463	-2,0205	59,148
0,612	-1,5243	57,162
-3,3577	-1,5243	51,206
-6,8312	-0,035559	51,206
6,0703	-1,028	71,06
-0,87663	2,4456	53,192
-19,733	-1,028	40,783
-7,3274	-2,5167	49,221
-4,8463	0,46068	48,228
-4,8463	2,9419	47,235
1,6044	1,9494	55,177
0,11579	1,4532	55,177
-6,3349	1,9494	42,272
-10,305	1,4532	42,768
-3,8539	-0,035559	33,834
-11,297	-1,5243	23,411
-1,8691	1,4532	34,33
-16,755	0,46068	19,44
-17,748	-0,5318	26,389
-10,801	1,9494	28,374
-8,3198	1,9494	30,856
-16,755	3,9343	19,44
5,5741	0,95692	43,265
2,5968	0,95692	41,776
-2,8615	0,95692	44,257
-9,8084	4,4306	40,783
-7,3274	5,4231	43,265
1,1082	4,4306	47,732
-18,244	2,4456	27,382
-6,8312	-2,0205	39,294
-10,305	3,4381	32,841
-4,3501	4,4306	32,841
-4,3501	5,4231	32,841
-4,3501	5,4231	28,374
9,0476	2,4456	29,863
13,017	1,9494	29,367
6,5665	2,9419	23,411
6,0703	3,9343	26,389
8,0552	6,9118	46,739
3,5893	4,9268	48,724
4,5817	4,9268	49,221
14,01	4,4306	56,17
-9,3122	2,9419	40,783
-3,3577	-1,028	47,235
-4,8463	-3,013	46,739
-7,8236	-7,9754	39,294
-9,3122	-6,4866	33,338
-3,3577	-8,9678	26,389
5,0779	-4,0055	26,389
-4,8463	-1,5243	11,002
-4,3501	1,9494	11,498
-4,8463	-1,028	11,498
-8,3198	-0,035559	3,0606
-3,8539	-1,5243	9,0167
-2,3653	-2,0205	18,944
-2,3653	0,95692	15,469
-4,8463	6,4155	13,484
-4,3501	7,9042	14,477
-2,8615	9,8892	15,469
-4,8463	12,37	9,5131
-3,3577	10,385	-2,8956
6,0703	17,333	3,5569
-2,3653	10,385	-9,3481
-3,3577	9,8892	-16,297
-1,3728	10,385	-22,749
2,1006	8,8967	-18,282
-19,236	9,8892	-31,684
4,5817	5,4231	-12,823
9,0476	1,4532	-18,282
-1,8691	-4,0055	-15,304
16,987	-4,5017	5,5423
-3,3577	-7,9754	-14,808
-8,816	-3,013	-21,757
-8,3198	-8,4716	-26,224
-2,8615	-7,4791	-21,26
-3,8539	-4,5017	-20,268
2,5968	-5,9904	-20,764
5,5741	-3,5092	-14,808
16,987	-3,013	5,046
-2,8615	-4,0055	-22,253
4,5817	-1,5243	-12,326
2,5968	-1,5243	-17,29
-0,87663	-3,013	-19,275
-3,3577	5,9193	-19,275
-4,8463	-1,028	-23,246
-15,763	-0,5318	-17,786
-14,274	-1,5243	-16,297
-1,8691	-2,0205	-12,823
5,0779	4,4306	-9,3481
2,5968	4,4306	0,57885
-2,3653	2,9419	1,5715
-5,3425	1,4532	2,5642
-3,8539	1,9494	-0,41385
-0,38042	3,4381	3,5569
3,5893	10,385	16,462
-0,38042	6,4155	11,498
-12,786	8,4005	4,5496
-8,3198	8,8967	5,5423
-7,8236	7,9042	5,5423
-16,259	9,393	-0,41385
-8,3198	3,9343	0,57885
2,1006	3,4381	15,469
-4,3501	4,4306	9,0167
-2,8615	2,4456	13,98
12,521	2,4456	35,819
-6,8312	3,4381	13,98
-2,3653	3,9343	10,009
-0,87663	-0,035559	13,98
-1,3728	-5,4942	9,0167
-12,786	-9,9603	3,0606
-21,717	-10,457	-1,9029
-17,748	-7,9754	-1,9029
-18,244	-7,9754	-2,3992
-2,3653	-6,9829	-1,9029
-2,3653	-6,4866	-4,3846
-2,3653	-7,9754	-4,3846
-1,8691	-4,9979	4,0533
0,612	-1,028	8,5204
0,11579	1,4532	11,498
-1,3728	1,9494	13,484
20,957	5,9193	25,396
2,1006	5,4231	7,5277
3,0931	5,9193	6,535
-3,3577	5,9193	-4,3846
-11,793	3,9343	-10,341
-5,3425	3,9343	-1,4065
0,612	4,9268	-4,881
-1,3728	4,9268	-4,881
0,11579	5,4231	-6,37
2,5968	8,8967	-4,3846
13,513	7,9042	11,002
-1,8691	3,4381	-5,3773
-6,8312	0,95692	-2,3992
2,1006	1,9494	2,0679
-0,87663	2,4456	4,5496
-0,38042	3,9343	11,498
-1,3728	4,9268	9,0167
-0,87663	4,4306	3,5569
-2,3653	5,9193	4,5496
0,612	8,8967	-1,4065
-0,87663	5,4231	-4,3846
-2,8615	3,4381	-3,8883
13,017	3,4381	15,469
-3,3577	1,4532	-2,3992
2,5968	-0,035559	1,5715
0,11579	1,4532	-2,3992
7,5589	0,46068	-4,881
9,0476	-0,035559	9,0167
3,0931	-5,4942	5,5423
5,0779	-11,945	9,0167
16,987	-15,915	29,367
0,612	-9,9603	11,498
-0,38042	-8,9678	9,0167
3,5893	-5,4942	10,009
-1,8691	-4,9979	-2,8956
-4,8463	-4,0055	-7,3627
-4,8463	-0,5318	-6,37
-0,87663	-0,035559	-4,3846
-9,8084	-0,035559	-6,37
5,0779	-2,0205	-1,9029
3,5893	-0,5318	-4,881
9,0476	8,8967	0,0825
-8,3198	1,9494	-9,8444
-3,8539	-0,035559	-3,3919
-3,8539	2,4456	5,5423
-5,3425	-1,5243	-2,3992
-5,3425	-0,035559	-11,333
-11,297	0,46068	-14,808
-4,3501	-4,5017	-9,3481
-4,8463	2,9419	-1,4065
-8,3198	3,4381	0,57885
-5,8387	1,9494	6,535
0,11579	3,9343	5,5423
8,5514	8,8967	19,44
6,0703	11,874	15,966
-4,3501	8,4005	7,0313
-4,3501	12,37	3,0606
-22,214	9,8892	-14,312
-23,206	8,8967	-2,8956
-9,8084	7,408	1,5715
-10,801	5,9193	-3,8883
-1,3728	5,4231	6,0387
-0,87663	1,4532	17,455
1,1082	-0,5318	5,046
6,5665	5,9193	11,002
2,5968	6,4155	1,5715
-8,3198	7,9042	-5,3773
-18,74	4,9268	-19,275
0,612	-3,013	-0,41385
-3,3577	-7,4791	-1,4065
-4,3501	-9,4641	-6,8663
0,612	-4,0055	-4,3846
7,5589	-7,4791	-9,3481
8,5514	-9,4641	-4,881
5,0779	-10,457	-1,9029
1,1082	-4,0055	-8,3554
18,476	-10,457	16,958
-1,8691	-11,449	-4,3846
-6,8312	-8,9678	-5,8737
-7,8236	-8,4716	-10,341
-23,206	-5,9904	-26,224
-0,38042	-3,5092	-4,881
-2,8615	1,4532	-1,4065
-3,8539	3,9343	2,5642
8,0552	4,4306	26,389
4,0855	3,4381	1,0752
0,612	7,9042	3,5569
-0,38042	5,4231	18,447
-6,3349	2,9419	33,338
-3,3577	7,408	56,666
-15,763	9,8892	56,666
-14,771	10,385	69,571
-16,755	9,8892	62,126
-3,3577	11,874	55,177
-3,3577	11,874	47,235
-2,8615	10,882	34,827
-7,8236	16,837	18,447
-5,8387	18,325	-0,41385
3,0931	14,355	-3,8883
2,5968	14,355	-10,341
-13,778	17,333	-44,589
-3,3577	22,295	-31,187
-7,3274	22,791	-36,151
-9,8084	25,769	-42,603
-33,627	24,776	-69,406
-15,763	27,258	-49,056
-15,267	25,769	-42,107
-12,786	22,791	-40,122
-11,297	25,769	-33,173
-6,8312	10,882	-30,195
-1,3728	10,385	-28,209
-1,8691	13,859	-22,253
6,5665	18,821	-15,304
8,5514	15,844	-8,8517
12,025	18,325	-6,37
8,0552	18,821	-6,37
8,0552	18,325	-3,3919
6,5665	15,844	-4,3846
-1,8691	7,9042	-18,779
15,002	10,882	3,0606
10,536	8,8967	10,506
1,6044	7,9042	6,0387
11,032	7,9042	7,0313
9,5438	5,9193	1,5715
-1,8691	7,408	-6,37
7,0627	5,9193	-5,3773
4,0855	6,4155	-8,8517
-3,3577	6,4155	-6,37
-10,305	3,4381	-13,319
-8,3198	11,378	-5,3773
-7,3274	16,837	-0,91019
-14,274	15,348	-13,319
-14,274	13,363	-21,26
-8,3198	13,859	-16,793
-4,8463	12,37	-14,808
-9,3122	5,9193	-12,326
-0,38042	1,4532	-5,3773
-2,3653	0,46068	-8,3554
7,5589	-0,035559	-8,3554
7,5589	-4,9979	-1,4065
4,5817	-7,9754	-0,91019
-0,87663	-4,9979	7,5277
-1,8691	-4,5017	12,491
-19,236	-5,4942	-15,304
-10,801	-0,035559	7,0313
-3,8539	-3,013	13,484
-7,3274	-4,5017	8,5204
-4,3501	-0,035559	12,491
-2,8615	2,9419	15,469
-4,8463	-1,028	12,491
-6,8312	-2,0205	6,535
2,5968	0,46068	16,958
-3,3577	2,4456	-0,41385
4,0855	4,4306	13,98
12,521	4,9268	35,819
-4,8463	3,4381	3,5569
-5,8387	6,4155	1,0752
-14,274	-0,035559	-4,3846
-4,8463	-4,0055	-4,881
-2,8615	-5,4942	-9,3481
-6,8312	-7,4791	-12,326
-6,3349	-7,9754	-10,341
-8,816	-9,4641	-10,837
-8,3198	-6,4866	-8,3554
4,0855	-4,0055	-2,8956
8,0552	-4,0055	-2,8956
10,04	-4,0055	-6,8663
5,5741	-1,5243	-4,3846
-1,8691	-5,9904	-4,881
-14,771	-0,5318	-2,8956
-11,297	14,852	-8,8517
-3,3577	8,4005	-20,764
5,5741	6,4155	-8,8517
4,5817	9,8892	-7,3627
1,1082	13,859	-10,837
-1,3728	12,37	-10,341
-19,733	11,378	-32,18
-4,3501	9,393	-8,3554
1,6044	12,867	-2,3992
-4,8463	12,37	-0,41385
-2,3653	9,8892	11,002
-15,267	10,385	-1,4065
-9,8084	8,8967	14,973
-7,8236	4,4306	13,98
15,002	10,882	25,396
2,1006	3,9343	13,484
1,1082	4,4306	12,491
-3,3577	2,4456	9,5131
1,6044	-7,4791	3,0606
-7,3274	-10,457	1,5715
-8,816	-14,923	3,5569
0,612	-7,4791	7,5277
3,5893	-4,0055	7,5277
-4,8463	-6,9829	-3,8883
-5,8387	-2,5167	0,57885
-4,8463	3,4381	-2,3992
-3,3577	2,4456	-0,41385
4,5817	0,46068	-0,91019
1,6044	1,4532	2,0679
5,5741	1,9494	3,5569
4,0855	-0,035559	5,5423
3,5893	-0,035559	1,5715
2,1006	1,9494	1,0752
-2,8615	-0,035559	-0,91019
19,468	1,4532	3,5569
-18,244	0,95692	-30,691
0,11579	10,882	-13,815
-2,3653	5,9193	-10,837
-10,305	2,4456	-14,808
0,11579	4,4306	-1,9029
1,6044	5,9193	10,009
-0,38042	3,9343	-8,3554
-2,8615	5,4231	-14,312
-3,8539	5,9193	-9,8444
-7,8236	5,9193	-4,881
-7,3274	7,9042	1,5715
-33,13	5,4231	-2,3992
-10,305	9,8892	0,57885
-11,793	7,9042	-1,4065
-11,297	8,4005	4,0533
-4,8463	4,9268	9,5131
-0,87663	3,9343	7,5277
0,612	1,4532	11,995
-2,8615	-0,035559	17,455
5,5741	0,95692	19,44
6,5665	0,95692	25,396
4,0855	2,9419	27,382
-7,8236	3,4381	18,447
-10,801	0,46068	12,491
-11,793	-3,013	29,367
-7,3274	-5,4942	29,367
0,612	-1,028	17,455
8,5514	5,4231	31,352
4,5817	5,9193	16,462
2,5968	3,4381	3,5569
3,0931	3,9343	-4,3846
0,612	1,4532	-9,8444
9,0476	4,4306	-16,297
8,0552	3,4381	-18,779
-6,8312	4,4306	-34,662
-3,3577	1,4532	-23,246
-4,3501	1,9494	-19,275
-9,8084	3,9343	-10,341
-4,8463	5,9193	-3,3919
3,0931	7,9042	-1,4065
3,0931	7,9042	1,0752
2,1006	8,4005	4,5496
-3,3577	6,9118	3,5569
-18,244	5,4231	-20,268
1,6044	15,348	4,5496
7,5589	14,355	5,5423
-2,8615	12,867	-15,304
0,612	10,882	-18,282
-6,8312	11,874	-15,304
-0,38042	11,874	-8,3554
1,6044	10,882	-8,3554
-5,8387	12,37	-14,312
2,5968	12,867	-30,691
1,6044	12,867	-29,202
-2,8615	15,844	-26,72
-4,3501	21,799	-8,3554
-25,687	20,806	-16,297
-20,229	18,325	-22,253
-15,267	13,363	-20,268
-12,289	15,348	-18,779
-11,793	8,4005	-19,771
-3,3577	8,4005	-18,282
-6,8312	8,4005	-14,312
-4,3501	6,4155	-13,319
-3,8539	-2,5167	-12,823
4,5817	-5,9904	-17,786
2,1006	-3,5092	-26,224
1,1082	-3,5092	-30,195
-18,74	-5,4942	-45,085
-2,8615	-3,5092	-31,187
-3,3577	-4,0055	-26,224
-7,3274	-2,5167	-19,771
-7,8236	-3,5092	-37,64
6,5665	-1,028	-20,764
2,1006	-3,5092	-20,764
-7,3274	-2,5167	-18,282
-5,3425	-0,035559	-0,91019
-4,8463	3,4381	6,0387
-0,87663	2,4456	-1,4065
-0,38042	2,9419	-3,3919
-1,8691	1,9494	-6,37
-5,3425	1,9494	-9,3481
-6,3349	0,95692	-16,297
-15,763	-5,9904	-32,18
-1,8691	-1,5243	-17,29
-5,8387	4,9268	-31,684
-1,8691	2,9419	-21,26
-1,3728	2,9419	-21,26
1,6044	6,4155	-17,29
3,5893	6,4155	-15,801
-1,3728	7,408	-18,282
8,0552	6,4155	-7,3627
8,0552	3,9343	-9,3481
3,0931	3,9343	-8,8517
-6,8312	1,9494	-20,268
-9,8084	0,95692	-18,282
-3,8539	1,9494	-5,3773
-8,816	4,4306	-8,3554
15,995	13,859	6,535
7,5589	8,8967	-5,3773
6,5665	7,408	-2,3992
-2,3653	5,9193	-6,37
-2,3653	2,4456	-4,3846
-2,8615	-5,9904	-12,823
-17,252	-13,434	-31,187
-4,3501	-21,374	-24,238
-4,3501	-14,426	-22,253
-2,3653	-9,4641	-9,8444
-2,8615	-5,9904	-0,91019
-3,8539	-1,028	4,5496
-5,3425	-0,035559	9,5131
0,11579	-2,0205	11,002
-0,87663	-5,4942	10,506
-5,3425	-11,449	7,0313
-13,282	-13,434	-5,3773
-11,297	-15,419	-6,37
-11,793	-16,908	-16,297
-11,793	-15,915	-8,8517
0,612	-19,389	-7,3627
5,0779	-16,411	-7,3627
-3,8539	-9,4641	-20,764
8,0552	-11,945	-6,37
5,5741	-8,9678	-8,8517
-2,8615	-10,457	-15,801
0,612	-12,441	-6,37
-0,38042	-5,9904	-6,37
-13,778	-7,4791	-28,209
-2,8615	-5,9904	-3,3919
-3,8539	-6,4866	-3,3919
-7,3274	-7,4791	-8,8517
-1,3728	-1,5243	-8,8517
0,11579	-4,0055	-6,37
-3,3577	-3,013	-6,8663
-4,3501	-3,013	0,0825
-8,816	-3,013	-4,3846
-20,229	-4,0055	-13,319
-18,74	-6,9829	-6,8663
-6,3349	-9,9603	3,5569
-0,87663	-13,93	2,5642
1,1082	-18,893	12,491
-2,8615	-24,351	17,455
3,0931	-27,825	25,892
1,6044	-35,765	30,856
-4,3501	-41,72	26,389
2,1006	-55,118	30,36
0,11579	-66,035	29,863
-2,8615	-91,343	22,418
-18,244	-116,16	5,046
-4,8463	-129,06	20,929
-7,3274	-139,48	18,447
4,5817	-142,95	32,841
3,5893	-141,96	22,418
19,964	-137,49	45,25
4,5817	-138,98	20,433
3,0931	-134,02	7,5277
10,04	-128,56	5,5423
-3,8539	-122,11	-12,326
